0,1,2,3,4,5,6,7,8,9
0.99696356,0.0,3.2484531e-06,2.682209e-07,2.115965e-06,7.480383e-06,3.2126904e-05,2.3841858e-07,0.00017884374,3.4034252e-05
0.9963913,0.0,4.634261e-05,1.4603138e-06,0.0,3.1620264e-05,6.490946e-05,0.00031796098,2.7000904e-05,0.00013959408
0.0055162907,0.00014573336,0.003858298,0.0018119216,0.87411195,0.98928475,0.010697871,4.3988228e-05,0.00013831258,0.00017625093
1.2844801e-05,0.020234019,2.4914742e-05,0.99872065,0.07932532,0.04141718,0.86711943,0.00029438734,1.0997057e-05,0.00024971366
0.00074982643,4.172325e-07,9.447336e-06,0.9986209,0.00022020936,4.9471855e-06,5.9902668e-05,9.030104e-06,9.9897385e-05,1.0192394e-05
0.99882525,0.0,7.122755e-06,0.0,0.0,4.887581e-06,8.1539154e-05,4.0858984e-05,5.00679e-06,1.21593475e-05
0.00058862567,0.0,2.3543835e-06,0.00012096763,6.5267086e-06,5.364418e-07,0.00087302923,0.0,0.9962208,1.1026859e-05
0.00021159649,5.9604645e-08,5.4121017e-05,0.99687326,0.9551189,2.8908253e-05,0.0010062158,2.9802322e-08,0.00029745698,3.3676624e-06
0.00012224913,4.172325e-07,3.963709e-06,0.58573604,0.00017344952,9.23872e-07,4.2289495e-05,0.0,0.99495006,2.592802e-06
9.62913e-05,1.7285347e-06,1.5795231e-06,7.4356794e-05,6.2584877e-07,0.0014227629,0.9976701,1.1920929e-05,0.00086930394,0.00068843365
0.00069218874,2.9802322e-08,0.46841043,6.824732e-05,3.9994717e-05,0.0021896064,0.061127424,7.7188015e-06,0.98633295,0.00016406178
0.0051193237,0.0,4.8041344e-05,6.0528517e-05,2.9802322e-07,2.7120113e-06,0.00019001961,8.940697e-08,0.9853252,3.7550926e-06
8.225441e-06,0.8211499,0.0034858286,0.9967524,1.2218952e-06,0.0021406114,0.0068980157,5.8412552e-05,0.5787237,1.8775463e-06
0.00096076727,0.83618474,0.01595828,0.0002912581,8.672476e-06,0.00048604608,0.0012159944,0.008493513,0.0016749501,0.1085805
0.22378463,0.0,8.6307526e-05,9.700656e-05,0.0,8.046627e-06,0.0007624924,5.543232e-06,0.91789806,4.5895576e-06
0.4718757,0.10713062,0.005895734,0.0014747381,4.261732e-06,0.0020433664,0.003931999,0.0024872422,0.122796714,0.00564003
3.284216e-05,9.894371e-06,6.0498714e-06,0.9996684,1.3738871e-05,2.5629997e-06,0.0003183484,3.874302e-07,0.8921026,1.3113022e-06
0.99892986,0.0,3.0398369e-06,0.0,0.0,1.758337e-06,3.6001205e-05,4.7683716e-07,2.0980835e-05,9.328127e-06
0.00053596497,0.020454973,0.2372329,0.0071612597,0.10188833,0.0065729916,0.83665574,2.4735928e-05,0.4321182,0.0003477037
6.094575e-05,4.0590763e-05,3.2693148e-05,0.0012725592,3.7252903e-06,0.0037015975,0.9701657,2.4616718e-05,0.88669914,0.00014513731
0.9978739,0.0,2.9146671e-05,2.3841858e-07,2.0861626e-07,2.9861927e-05,0.00010198355,1.5377998e-05,1.6510487e-05,1.9550323e-05
0.009577304,1.6123056e-05,0.9954453,0.022975683,0.00018078089,5.5998564e-05,0.00043118,0.00060355663,0.00024670362,0.00031927228
0.9987538,0.0,1.2814999e-06,0.0,6.854534e-07,6.854534e-07,3.5375357e-05,5.9604645e-08,5.841255e-06,3.0100346e-06
0.009923935,0.0,0.00058189034,0.00026205182,5.662441e-07,2.8312206e-06,0.0019677877,6.2584877e-07,0.98883724,1.1563301e-05
0.014995903,0.0,0.00012803078,8.8989735e-05,6.2584877e-07,2.0563602e-06,0.0002619326,5.364418e-07,0.983886,6.464124e-05
0.00014835596,0.005097538,0.7680484,0.029010057,0.013380557,0.971686,0.012352765,0.0018805265,0.04752162,0.00022503734
0.0017409027,0.0055039227,0.00033900142,0.0014619231,0.00092998147,0.011713743,0.8746164,6.943941e-05,0.00034102798,0.0015154779
0.99664795,0.0,3.0010939e-05,1.1622906e-06,0.0,1.5586615e-05,0.00010621548,0.00035241246,2.8848648e-05,2.7865171e-05
0.0043595135,1.937151e-06,8.9854e-05,1.54078e-05,0.0,7.5399876e-06,9.655952e-06,0.98647755,0.0009562373,0.0008483827
9.387732e-06,0.9924109,0.00031492114,0.0058479905,3.5762787e-07,0.0030238032,0.0036264062,4.044175e-05,0.970891,0.0007118881
0.00026029348,4.708767e-06,1.0728836e-06,2.387166e-05,3.8444996e-06,0.0010966063,0.9980891,3.8444996e-06,0.00029307604,0.00049230456
6.1273575e-05,1.7225742e-05,6.3180923e-06,5.4210424e-05,6.2584877e-07,0.001157403,0.997777,1.7106533e-05,0.024218261,0.0006365478
0.0033794343,3.5762787e-07,9.834766e-07,2.2947788e-06,6.67572e-06,0.00022926927,0.99683344,2.026558e-06,1.603365e-05,0.00014480948
0.00061291456,5.9604645e-08,7.301569e-06,0.99842596,0.01459536,6.467104e-06,0.00022831559,2.5331974e-06,3.4570694e-06,7.301569e-06
0.97980475,0.0,2.8014183e-06,2.4437904e-06,6.854534e-07,1.5199184e-06,0.00014132261,8.940697e-08,0.019017428,5.90086e-06
0.99934655,0.0,7.4505806e-07,0.0,0.0,7.748604e-07,3.170967e-05,8.940697e-08,4.5597553e-06,2.0861626e-06
0.9920923,0.0,9.071827e-05,8.6426735e-07,0.0,0.00021019578,0.0007484853,3.0100346e-06,0.0040938556,3.0606985e-05
0.99887335,0.0,1.013279e-06,0.0,5.662441e-07,1.1622906e-06,2.4527311e-05,2.9802322e-08,1.052022e-05,7.1525574e-06
0.99896,0.0,4.7683716e-06,0.0,1.1920929e-07,5.453825e-06,6.788969e-05,3.2782555e-07,1.4305115e-05,8.7320805e-06
8.5771084e-05,0.0,1.7404556e-05,0.000114798546,1.1920929e-07,3.0696392e-06,0.00019970536,2.9802322e-07,0.99882954,2.1457672e-06
0.001653254,6.735325e-06,0.9092227,0.0012089908,0.0023941398,0.00032138824,0.0011430085,0.004676163,0.7022496,0.13822597
0.9951282,0.0,5.2452087e-06,7.748604e-07,5.066395e-07,1.8686056e-05,0.00025218725,1.4901161e-07,0.0028857589,5.3942204e-06
0.00011467934,5.9604645e-08,0.010963917,1.4424324e-05,1.6391277e-06,0.9972292,0.015684903,3.361702e-05,0.0347189,4.017353e-05
1.4483929e-05,0.99173135,0.00045242906,0.0036368966,1.4901161e-07,0.0018458962,0.0023524463,6.994605e-05,0.9608485,0.0008880794
0.0012678504,0.0,1.0758638e-05,3.0994415e-05,5.9604645e-08,5.2154064e-06,0.00031390786,1.8179417e-06,0.99522346,2.9951334e-05
0.0059715807,3.5762787e-07,6.80089e-05,8.910894e-06,0.0,1.7851591e-05,0.00020629168,0.9879669,0.02153331,0.0024778843
0.16344774,0.0,0.004598558,1.2755394e-05,9.23872e-07,1.5199184e-05,0.0012519658,2.592802e-06,0.87897384,0.00047582388
0.017172128,3.516674e-06,0.006863922,0.0011122823,4.172325e-07,9.378791e-05,0.0039785802,0.00127092,0.96984226,0.00053575635
0.00018247962,0.9413305,0.0032510757,0.00043040514,6.753206e-05,0.0013251603,0.011802942,0.00016731024,0.24574402,0.014857054
0.9991921,0.0,3.2782555e-07,0.0,0.0,2.3841858e-07,2.6077032e-05,2.9802322e-08,1.0937452e-05,2.5629997e-06
6.726384e-05,1.385808e-05,0.005676061,0.00079745054,0.00021353364,0.9963495,0.02844876,0.00049361587,0.05724737,0.00077566504
0.00054481626,0.9364939,0.004383862,0.0002117753,0.002594471,0.0044586062,0.013811082,4.7147274e-05,0.010639101,0.0147096515
0.00010293722,3.7312508e-05,0.026039064,0.0014095902,0.0007291436,0.9978101,0.037490964,0.00011590123,0.75060964,0.00017359853
0.38096264,1.4901161e-07,6.41346e-05,0.00017932057,0.0,6.28829e-06,0.00024855137,0.00056540966,0.82810885,0.002009064
0.99619794,0.0,3.8444996e-06,5.9604645e-08,2.5331974e-06,4.8577785e-06,4.2408705e-05,1.4901161e-07,0.0003386438,4.711747e-05
0.0005700886,0.97419673,0.0127773285,0.004059106,6.482005e-05,0.0062044263,0.007379979,0.0005759597,0.050292015,0.008826554
0.9771459,0.0,0.00014227629,1.4901161e-06,5.9604645e-08,3.5077333e-05,0.00047004223,1.5676022e-05,0.097295105,0.00030127168
4.7057867e-05,0.9852075,0.0024534166,0.002012819,3.144145e-05,0.0065035224,0.0057611763,0.00057438016,0.0018586218,0.005344987
0.99421865,0.0,0.00017291307,0.00010749698,2.9802322e-08,0.0011479259,0.00045651197,0.00020217896,0.0020937026,1.6361475e-05
0.0009753704,0.90399086,0.0016746223,3.5464764e-05,2.5063753e-05,0.0007272959,0.0027418435,0.002624154,0.02432537,0.29639435
0.99938023,0.0,2.0563602e-06,0.0,0.0,6.854534e-07,5.3346157e-05,2.3841858e-07,4.827976e-06,1.4603138e-06
0.00013500452,4.172325e-07,0.01845628,3.5107136e-05,1.9073486e-06,0.9972142,0.016132832,9.7602606e-05,0.19300476,4.708767e-05
0.00043287873,0.0005072355,0.0033575594,0.05382788,0.7091986,0.9962609,0.021770239,4.3988228e-05,7.215142e-05,0.0001270771
0.115097255,0.0,5.5223703e-05,2.0861626e-07,0.0001142323,5.066395e-07,6.9499016e-05,4.172325e-07,0.15643367,0.68500614
0.1774506,7.122755e-06,0.001467973,3.582239e-05,1.0669231e-05,2.5331974e-05,0.0015292466,0.001008898,0.5317934,0.52068925
0.99636555,0.0,4.5865774e-05,1.7881393e-06,3.5762787e-07,4.4196844e-05,9.196997e-05,1.7344952e-05,6.747246e-05,2.6673079e-05
0.99841,0.0,1.22487545e-05,2.0861626e-07,0.0,1.9520521e-05,0.00015327334,3.388524e-05,5.0753355e-05,1.1920929e-06
0.00014489889,4.6491623e-05,0.021039873,0.02239278,0.025824517,0.00020202994,0.0032681525,2.9802322e-07,0.99454284,3.874302e-05
0.029073983,2.3245811e-06,0.002745062,0.0021143258,0.0,0.0016365945,0.007972419,0.6161242,0.14747083,0.023255885
0.001506716,5.9604645e-08,4.5090914e-05,2.0861626e-06,0.0,9.536743e-07,1.5050173e-05,0.99368095,1.579523e-05,9.8496675e-05
0.24133092,0.0,0.00016534328,0.0002811551,1.1026859e-06,2.115965e-06,0.00018262863,9.5665455e-06,0.9284704,0.0012220144
0.99830925,0.0,4.8577785e-06,2.9802322e-08,0.0,5.1259995e-06,6.404519e-05,1.1026859e-06,5.2928925e-05,8.165836e-06
0.00026667118,3.4570694e-05,3.7014484e-05,0.9993051,9.089708e-06,1.3589859e-05,0.00036910176,7.432699e-05,0.0015388131,2.3156404e-05
0.0047456324,1.847744e-06,9.953976e-06,0.9956846,1.21593475e-05,6.645918e-06,0.00020727515,7.3850155e-05,3.761053e-05,3.656745e-05
0.00012642145,2.682209e-07,5.722046e-06,0.9993813,4.646182e-05,2.861023e-06,6.878376e-05,1.1920929e-05,0.00014358759,1.8537045e-05
0.0012271106,0.0,2.208352e-05,2.527237e-05,1.4603138e-06,4.4107437e-06,0.0005673468,2.3841858e-07,0.9950657,3.0577183e-05
0.44066122,2.3841858e-07,5.492568e-05,4.2289495e-05,0.0,2.208352e-05,0.00036513805,0.7051478,0.00029611588,0.0011943579
0.99687016,0.0,6.452203e-05,2.0861626e-07,5.9604645e-08,5.7697296e-05,0.0003196597,2.1964312e-05,6.5892935e-05,4.9471855e-05
0.7829399,4.4703484e-07,0.00010544062,0.0012875497,0.0,7.7068806e-05,0.002707392,0.017501473,0.074976414,8.910894e-06
0.933783,8.940697e-08,1.5288591e-05,0.100039065,6.2584877e-07,2.1398067e-05,0.0005142689,0.0001424551,0.0011841357,6.6161156e-06
0.99902105,0.0,3.516674e-06,0.0,0.0,1.66893e-06,5.13494e-05,5.066395e-07,9.268522e-06,4.3809414e-06
0.98189425,0.0,1.66893e-06,1.9967556e-06,0.916265,2.026558e-06,1.4483929e-05,0.0,1.3977289e-05,6.610155e-05
0.9981999,0.0,3.20971e-05,1.4901161e-07,2.9802322e-08,1.4960766e-05,0.0002181232,7.2717667e-06,1.7046928e-05,2.115965e-06
0.9987271,0.0,1.7285347e-06,2.9802322e-08,2.9802322e-08,5.1259995e-06,5.7697296e-05,7.4505806e-07,6.377697e-05,1.0550022e-05
0.0014187098,0.0,0.00016710162,0.0007441044,0.000805825,7.3611736e-06,0.00034624338,2.9802322e-08,0.99357563,2.8073788e-05
0.99766093,0.0,7.891655e-05,1.4901161e-07,1.4901161e-07,1.937151e-05,4.7296286e-05,3.5077333e-05,1.8239021e-05,7.075071e-05
0.00079619884,4.3809414e-06,0.0063537955,0.00013396144,3.9815903e-05,0.8262693,0.076710165,9.992719e-05,0.89312387,0.0009938478
0.0023550391,0.0,2.1457672e-06,4.7683716e-07,0.012587756,2.9802322e-08,4.7683716e-07,2.9802322e-08,0.00068596005,0.9874668
0.0010114312,1.2516975e-06,2.9206276e-06,0.9993613,0.00018450618,8.85129e-06,0.000584811,1.2516975e-06,0.0015604496,2.026558e-06
0.00037965178,0.9163914,0.009658486,0.14167723,0.00016590953,0.01071009,0.01565972,0.00026535988,0.85493326,0.0019663572
0.14406839,4.172325e-07,7.736683e-05,9.924173e-05,2.8908253e-06,3.606081e-06,0.0003914535,8.106232e-06,0.92978364,0.00042584538
0.9976886,0.0,1.8179417e-06,0.0,0.0,7.4505806e-07,0.00016537309,1.7881393e-07,0.0007529259,1.66893e-06
4.428625e-05,0.0,0.0,0.0,8.940697e-08,0.0,0.0,0.0,6.2316656e-05,0.99955297
0.33079624,4.172325e-07,0.00085425377,6.851554e-05,0.0,0.00032505393,0.00064346194,0.93930095,0.009540439,0.00047525764
0.00010150671,0.00024095178,0.37463725,0.0031565428,0.00081431866,0.9995683,0.0022334456,0.00033473969,0.2740723,2.9057264e-05
0.96379143,0.0,7.748604e-07,5.3942204e-06,5.662441e-07,2.9802322e-07,6.4730644e-05,1.1920929e-07,0.02549386,8.940697e-06
0.00078478456,1.9967556e-06,0.89909995,0.002943039,0.0014013052,0.0014169812,0.035931915,1.6093254e-05,0.96173143,0.00035953522
0.9902286,0.0,9.891391e-05,0.00010713935,1.7881393e-07,0.00016096234,0.00013744831,0.0022681952,0.00028184056,0.00025343895
6.2823296e-05,0.0011970699,0.00030750036,0.9994792,0.00042957067,0.0010923445,0.050464243,4.6879053e-05,0.08468893,2.9206276e-06
0.005980581,0.0,1.2516975e-06,0.0,6.1392784e-06,0.0,8.34465e-07,0.0,0.001101762,0.99201196
0.99013746,0.0,0.00052139163,5.9634447e-05,1.1920929e-07,0.0007350445,0.00027278066,0.00028020144,0.0014858246,9.301305e-05
0.99507093,0.0,2.3812056e-05,1.0728836e-06,4.142523e-06,0.00010719895,0.0004477203,1.2218952e-06,0.00089254975,2.4020672e-05
0.00020116568,0.0,5.5998564e-05,5.8680773e-05,0.0012649,1.0728836e-05,0.00091969967,0.0,0.99634427,5.0216913e-05
0.12753078,2.9802322e-08,0.0023068786,5.6028366e-06,0.00019708276,2.3245811e-06,0.00020605326,3.272295e-05,0.21955457,0.8465477
0.99883425,0.0,2.0861626e-07,0.0,3.2782555e-07,4.172325e-07,2.95043e-05,2.9802322e-08,9.655952e-06,2.592802e-06
4.5001507e-06,0.9494281,0.0048936605,0.9957116,7.122755e-06,0.009681761,0.029790014,0.00012525916,0.5558507,8.583069e-06
4.643202e-05,4.172325e-07,0.0012710989,0.00096926093,1.2457371e-05,0.9992124,0.005471438,0.00022742152,0.00047400594,6.4074993e-06
1.1950731e-05,0.00032255054,0.9323836,0.8987536,0.0035518408,0.0001822412,0.0013809502,0.0008202195,0.0034874976,0.00046411157
0.98685396,0.0,0.00022038817,1.847744e-06,1.7881393e-07,0.00014165044,0.00025585294,1.1175871e-05,0.014803261,0.0008661151
6.5118074e-05,6.446242e-05,0.00017184019,0.99962175,2.4080276e-05,3.3020973e-05,0.0004093647,4.953146e-05,0.00010219216,3.0398369e-06
0.99743307,0.0,6.9737434e-06,1.1920929e-06,8.940697e-08,8.612871e-06,6.869435e-05,1.0848045e-05,4.014373e-05,6.4969063e-06
0.0015077889,1.4603138e-06,0.010442972,0.503374,0.9946768,0.000112473965,0.0023989081,1.5199184e-06,8.663535e-05,0.00021234155
5.543232e-06,0.948944,0.00020134449,0.22423676,1.1026859e-06,0.0010065436,0.015835285,3.6656857e-06,0.98472977,3.787875e-05
0.99889016,0.0,1.013279e-06,0.0,5.9604645e-08,1.0728836e-06,3.6507845e-05,5.9604645e-08,3.0040741e-05,4.9471855e-06
9.2715025e-05,0.0021447241,0.9506236,0.16886416,0.0003990531,0.0015435815,0.011957377,7.715821e-05,0.9847969,2.259016e-05
0.9772976,2.9802322e-08,0.01331684,1.7881393e-07,9.834766e-07,7.879734e-05,0.0006919503,7.95722e-06,0.0003299713,0.0012190342
0.00039324164,8.8751316e-05,0.0060263574,0.0025876164,0.0018143952,0.88617617,0.17037001,0.000109523535,0.81747055,0.00073587894
5.7071447e-05,0.00029182434,0.093823195,0.006600529,0.0020187497,0.9983074,0.006822616,8.2969666e-05,0.0030953884,1.9192696e-05
0.0009509623,0.0001502335,0.00013136864,0.9994423,0.0025657713,0.0004503727,0.009928882,0.00011894107,1.9878149e-05,2.3633242e-05
0.00055488944,8.6426735e-07,0.00021222234,8.583069e-06,0.0,2.18153e-05,8.291006e-05,0.98847723,0.0041306615,0.0056589544
0.99888736,0.0,4.172325e-07,0.0,2.3841858e-07,1.7881393e-07,9.423494e-05,0.0,1.2636185e-05,1.2814999e-06
0.994411,0.0,5.686283e-05,1.23381615e-05,8.940697e-08,7.018447e-05,0.00016155839,9.688735e-05,0.00037410855,2.69413e-05
0.99914443,0.0,1.4007092e-06,0.0,5.9604645e-08,1.013279e-06,6.29127e-05,0.0,9.804964e-06,1.3411045e-06
0.2824651,0.0,1.1861324e-05,5.0753355e-05,5.9604645e-08,3.2782555e-07,7.557869e-05,2.0563602e-06,0.9305513,0.00026252866
0.9874786,0.0,4.2825937e-05,3.784895e-06,4.386902e-05,9.3340874e-05,0.00063738227,7.748604e-07,0.007976741,0.00011438131
4.428625e-05,0.0,0.0,0.0,8.940697e-08,0.0,0.0,0.0,6.2316656e-05,0.99955297
0.008013308,0.0,5.596876e-05,1.4901161e-07,5.6028366e-06,8.940697e-08,1.4513731e-05,4.2021275e-06,0.015604824,0.9692706
0.0023381412,5.1677227e-05,0.00088119507,9.23872e-07,1.9669533e-06,1.0430813e-06,5.4329634e-05,0.00070774555,0.00060096383,0.95164955
0.0016480386,0.0,0.00023958087,7.560849e-05,4.0233135e-06,9.000301e-06,0.0009822249,1.7881393e-07,0.9949034,1.12354755e-05
0.9906666,0.0,8.004904e-05,2.682209e-07,6.1690807e-06,5.635619e-05,0.0002477169,1.1622906e-06,0.0016787946,0.0002554953
4.094839e-05,0.9874541,0.002699405,0.002439648,0.0004864335,0.030088007,0.024466813,9.030104e-05,0.046227366,0.0076594353
0.007827371,0.0,2.9981136e-05,0.0005708933,1.9073486e-06,2.9802322e-06,0.00023779273,2.9802322e-06,0.9903325,7.748604e-05
0.006846428,2.6524067e-06,8.940697e-06,0.00018137693,9.000301e-06,0.0010331869,0.993423,0.00011536479,0.00013077259,0.0005198419
0.87573117,0.0,5.0395727e-05,2.6226044e-06,4.172325e-07,1.6093254e-06,0.00028437376,1.4901161e-07,0.5513929,4.9620867e-05
0.00015977025,0.94317305,0.023833841,0.9021089,9.387732e-06,0.011249661,0.012352526,0.009091318,0.0065332353,0.0005095303
0.0019919574,3.5762787e-07,0.00011366606,0.99120045,0.16466862,0.00014954805,0.0009230077,5.015731e-05,4.863739e-05,0.0003016889
0.8281622,5.066395e-07,4.091859e-05,0.59882915,0.0025918484,0.00010338426,7.7068806e-05,2.1487474e-05,0.0030009449,0.0002554953
0.4134672,8.940697e-08,2.1100044e-05,1.8209219e-05,7.122755e-06,1.013279e-06,0.00011986494,6.2584877e-07,0.86137664,0.0006609857
0.27441114,0.0,0.0028376281,8.0019236e-05,1.2516975e-06,2.515316e-05,0.0021793246,1.8179417e-06,0.86148655,2.6643276e-05
0.0025889277,0.0,1.5556812e-05,0.0018417239,4.6491623e-06,1.1026859e-06,0.0004159212,1.7881393e-07,0.99503136,1.6123056e-05
0.7826274,2.9802322e-08,0.00034061074,3.3527613e-05,1.1920929e-07,3.71933e-05,0.0017528832,5.453825e-05,0.7525877,9.766221e-05
0.9867596,8.940697e-08,0.00024929643,4.6759844e-05,5.9604645e-08,0.0001437068,0.000510931,0.00049993396,0.0019056201,4.5120716e-05
0.9973262,0.0,1.0371208e-05,5.9604645e-08,2.0861626e-07,1.847744e-05,6.5267086e-05,5.9604645e-07,0.0005259514,7.683039e-05
0.9990766,0.0,5.364418e-07,0.0,8.940697e-08,9.23872e-07,2.655387e-05,5.9604645e-08,7.95722e-06,2.8014183e-06
0.00065115094,8.46386e-06,1.5050173e-05,0.99957746,0.0020678341,7.69794e-05,0.0027592778,2.2351742e-05,1.2129545e-05,1.218915e-05
0.010216624,0.0,2.4735928e-06,2.3841858e-06,0.0,1.4901161e-07,0.00014030933,5.9604645e-08,0.9912579,4.23491e-05
0.99564487,0.0,5.850196e-05,5.1259995e-06,5.9604645e-08,9.277463e-05,0.00015109777,6.28531e-05,0.00020760298,2.3782253e-05
0.99852717,0.0,1.937151e-06,5.9604645e-08,1.7881393e-06,1.9073486e-06,5.7965517e-05,1.1920929e-07,9.4771385e-06,3.963709e-06
0.0041884184,0.0,0.00014585257,0.00011250377,3.5762787e-06,1.5765429e-05,0.001278162,1.1920929e-06,0.9880825,4.3958426e-05
0.9987304,0.0,2.0861626e-06,0.0,0.0,1.4007092e-06,4.3302774e-05,1.7881393e-07,6.67572e-05,1.0639429e-05
0.8612241,0.0,0.00010681152,6.1392784e-06,1.1920929e-06,2.4437904e-06,0.00015169382,4.7683716e-07,0.51595956,0.00029298663
0.00097471476,0.8850632,0.01068005,0.0013974309,5.248189e-05,0.0049693584,0.004526973,0.016654968,0.006681353,0.120144784
0.004006088,4.6789646e-06,7.1525574e-06,0.00027757883,8.761883e-06,0.0011188388,0.99041426,4.786253e-05,4.4971704e-05,0.00025606155
0.008399069,2.0682812e-05,0.042527795,0.0014674664,0.00024235249,0.8777358,0.20205352,0.0038475096,0.5863897,0.0049795806
0.001886338,0.0,1.385808e-05,0.0003990829,3.6358833e-06,6.2584877e-07,0.0006634295,0.0,0.99646723,4.8577785e-06
0.26958835,5.9604645e-08,0.00014570355,1.1920929e-07,0.0024821758,4.7683716e-07,1.7851591e-05,8.34465e-07,0.0002462566,0.8898043
0.07102662,5.1558018e-05,0.21915206,0.0013925135,0.026703566,0.004484594,0.17410254,0.030026168,0.008644193,0.5921074
0.00068974495,0.74879533,0.12907213,0.0039568543,0.35443664,0.012824655,0.046542913,2.399087e-05,0.007891029,0.0032346547
0.00039497018,1.4901161e-07,2.05338e-05,0.9984709,0.0049800575,5.00679e-06,0.00010442734,1.8179417e-06,6.905198e-05,1.04904175e-05
0.99922955,0.0,2.413988e-06,0.0,0.0,1.1622906e-06,8.225441e-05,5.066395e-07,1.6093254e-06,1.1026859e-06
0.041323572,1.1026859e-06,8.1926584e-05,3.427267e-06,0.0,1.2218952e-06,2.938509e-05,0.96420383,8.481741e-05,0.0026803315
0.0047730505,5.9604645e-08,0.0027153194,9.089708e-06,6.2286854e-06,0.9936513,0.024108917,4.3064356e-05,0.0019265115,9.453297e-05
4.7266483e-05,0.0,0.0,0.0,5.9604645e-08,0.0,0.0,0.0,4.6104193e-05,0.9995127
1.0281801e-05,0.8876749,0.0010853112,0.00092604756,5.364418e-07,0.00015100837,0.0011844039,3.6358833e-06,0.975141,0.00014322996
1.4394522e-05,0.0011851192,0.00084605813,0.99529266,3.6656857e-06,0.002752453,0.1689755,0.00011757016,0.18247303,3.5762787e-07
0.047536343,0.0,0.00010538101,0.000528723,3.5762787e-07,5.6922436e-06,0.00033345819,2.220273e-05,0.978632,0.00013518333
0.00033205748,2.3841858e-06,5.3346157e-06,7.4505806e-07,3.4868717e-06,8.6426735e-05,0.21841651,3.5762787e-07,0.9818926,0.000990361
0.96586573,2.3841858e-07,0.00744617,6.586313e-05,1.4603138e-06,0.002238661,0.0012101829,0.00045523047,0.035619617,0.002762735
0.26512086,0.0,2.8192997e-05,3.170967e-05,0.0,7.1525574e-07,0.00034341216,7.301569e-06,0.9467782,8.803606e-05
0.0008780956,0.0,9.346008e-05,9.945035e-05,4.3600798e-05,2.3841858e-06,0.0011200011,2.9802322e-08,0.993818,0.0001526773
0.004904002,0.0074943304,0.0065781176,0.0069957674,0.017022759,0.0037005842,0.93255603,0.00016388297,0.001098156,0.0027738512
0.9988656,0.0,2.7418137e-06,0.0,4.172325e-07,3.6358833e-06,0.00023517013,8.940697e-08,8.136034e-06,3.2186508e-06
0.9986105,0.0,1.9073486e-06,0.0,3.5762787e-07,1.013279e-06,6.070733e-05,5.9604645e-08,1.2040138e-05,4.440546e-06
0.00012651086,0.0,0.0,0.0,8.940697e-08,0.0,0.0,0.0,0.00023949146,0.9986193
0.9948615,0.0,0.00047710538,4.887581e-06,1.1920929e-07,0.00025331974,0.00039163232,0.0008815229,1.9341707e-05,5.3197145e-05
0.00026085973,0.97933304,0.004406154,0.0010073185,8.285046e-06,0.0013071895,0.0070114136,0.00048476458,0.032414377,0.004385233
0.00013178587,1.7881393e-07,5.969405e-05,0.9989135,0.91160595,5.5223703e-05,0.0016943812,2.9802322e-08,0.00012928247,6.2584877e-07
0.0060266256,0.0,2.3841858e-07,2.9802322e-08,1.013279e-06,0.00014641881,0.9974978,2.682209e-07,1.0818243e-05,0.000109136105
0.99819934,0.0,1.9192696e-05,1.7881393e-07,0.0,6.377697e-06,0.00015720725,7.57277e-05,4.827976e-06,4.440546e-06
0.0005811155,4.1753054e-05,0.96668404,0.029760212,0.0009097755,0.0009056628,0.008009672,0.00040128827,0.9317498,0.00051161647
3.528595e-05,2.9802322e-07,0.00834468,3.516674e-06,3.0994415e-06,0.9987748,0.00905782,3.9041042e-06,0.002327472,7.611513e-05
0.99796605,0.0,4.1127205e-06,1.7881393e-07,2.3841858e-07,8.016825e-06,4.5627356e-05,1.4007092e-06,9.173155e-05,1.475215e-05
0.0012150407,1.2516975e-06,0.01856774,0.00050237775,1.54078e-05,0.9256315,0.19680339,0.011373997,0.0059586167,0.0016900599
0.0012279451,0.0,5.9604645e-07,1.6987324e-05,0.0,1.0728836e-06,4.246831e-05,8.940697e-06,0.99535286,3.5464764e-05
6.1392784e-06,0.0001835227,0.00044506788,0.00056785345,1.090765e-05,0.14998838,0.9123829,3.9041042e-06,0.47003362,0.0006418526
2.5421381e-05,0.97104824,0.007453412,0.88084364,8.562207e-05,0.014234662,0.016908824,7.3581934e-05,0.04366654,0.0001090467
6.9618225e-05,1.31726265e-05,0.012145609,0.0013952851,0.00025179982,0.99964917,0.0075069666,0.00013366342,0.1784333,4.3302774e-05
0.106735885,0.004654348,0.0005416274,0.00031411648,0.15943372,0.0018377304,0.004639983,1.090765e-05,0.0022512674,0.11966488
0.9455972,0.0,2.476573e-05,3.1590462e-06,2.7120113e-06,3.0696392e-06,0.00015968084,3.5762787e-07,0.20172635,0.00020903349
0.7474029,8.940697e-08,2.5480986e-05,5.3226948e-05,0.0,1.5795231e-06,0.0001655817,9.4115734e-05,0.6240032,0.00018414855
7.033348e-06,0.00012034178,0.061597764,0.0007827282,0.00038933754,0.9949765,0.013409227,9.3609095e-05,0.1304867,0.00018683076
0.0002566576,0.0032486618,0.57016706,0.023230493,2.115965e-06,0.000135988,0.0028722882,0.00035828352,0.9886076,7.262826e-05
0.002245009,0.01597032,0.0006766021,0.0007222891,0.7879478,0.0008223653,0.018033683,5.9604645e-08,0.68588203,0.0018266141
0.00019836426,0.0014141202,0.008912742,0.0002799034,0.0010457039,0.9255727,0.04041928,3.0338764e-05,0.91057086,0.002963215
0.98716223,1.1920929e-07,0.00060403347,6.315112e-05,2.9802322e-08,0.00047788024,0.00027787685,0.0038497448,0.0033483505,0.0006146431
0.9914423,0.0,6.613135e-05,1.66893e-06,1.5258789e-05,9.050965e-05,0.0001373589,2.1457672e-06,0.0015921593,0.0005093217
0.006600946,0.00012674928,0.03247112,0.05803299,0.011404067,0.969962,0.029151231,0.0041238368,0.1615839,0.0010798275
0.00019526482,4.172325e-07,0.94741213,0.0034157634,0.001127094,0.003059864,0.011277497,1.66893e-06,0.970937,1.9043684e-05
9.447336e-06,0.85614604,0.03222391,0.00036731362,0.0024650693,0.0057314932,0.004946351,3.8444996e-06,0.815845,0.0005712211
0.0028584003,0.054531246,0.0022972226,0.26496068,0.055958778,0.017659932,0.70511997,0.0010591447,0.028597087,0.113392115
0.0011186302,2.8908253e-06,0.000844568,0.93852437,0.9969106,0.00028142333,0.010004163,2.0861626e-07,9.2059374e-05,1.9073486e-05
0.0082345605,5.6922436e-06,0.9978796,0.002560854,5.3614378e-05,0.00019064546,0.003630966,0.008680522,7.343292e-05,0.00054225326
0.4439822,0.0,0.00019103289,0.001398176,8.7320805e-06,6.467104e-06,0.00027376413,4.351139e-06,0.8694085,0.00020325184
3.170967e-05,0.49503648,0.6480831,0.99256694,0.022459954,0.029495955,0.004530847,0.00030314922,0.0018270314,5.00679e-06
0.99895704,0.0,2.8908253e-06,0.0,0.0,1.6391277e-06,3.913045e-05,1.1920929e-07,3.6776066e-05,6.1690807e-06
0.37641782,2.9802322e-07,1.513958e-05,9.23872e-07,1.0073185e-05,0.00024992228,0.95507103,1.4811754e-05,0.0009846687,0.00012931228
0.00024685264,0.0,2.7894974e-05,8.305907e-05,0.0063385963,3.4570694e-06,0.0070596337,0.0,0.99447256,7.030368e-05
0.010291815,5.9604645e-08,5.066395e-06,0.99046457,9.953976e-06,1.3381243e-05,0.0001617074,3.1232834e-05,5.4836273e-06,3.0100346e-06
0.9990496,0.0,6.2584877e-07,0.0,2.0861626e-07,4.172325e-07,4.4614077e-05,8.940697e-08,7.4207783e-06,3.3676624e-06
0.13234589,2.2679567e-05,0.00017541647,0.79276294,0.009129167,0.00028538704,0.006545067,0.00027298927,0.00089117885,0.0006906688
0.0048452914,0.0,3.3527613e-05,9.945035e-05,0.10229853,1.6093254e-06,0.0005118847,0.0,0.971468,6.6906214e-05
0.0026027262,5.9604645e-08,0.0017723739,7.921457e-05,1.9818544e-05,0.9977711,0.018057764,9.2059374e-05,0.0028746128,5.057454e-05
0.99903786,0.0,6.854534e-07,0.0,5.364418e-07,6.2584877e-07,6.133318e-05,0.0,8.136034e-06,1.8179417e-06
6.246567e-05,0.0016396642,0.7288915,0.9894266,0.0017473996,0.00035497546,0.00032293797,0.00048092008,0.00016501546,6.493926e-05
0.9905679,6.556511e-07,0.0013195872,1.6987324e-06,1.7881393e-07,0.00023394823,0.00051635504,0.0005492866,0.0015753508,0.0007340312
0.0008662641,5.066395e-07,2.861023e-05,4.976988e-06,0.0,2.3245811e-06,4.4345856e-05,0.99380994,0.00084751844,0.00035771728
0.006616771,1.3709068e-06,6.532669e-05,7.4118376e-05,1.9967556e-06,0.0065135956,0.9829907,0.00019311905,0.07647091,0.0018750131
0.0002887845,0.0,8.4102154e-05,2.5510788e-05,1.7285347e-06,7.867813e-06,0.00023269653,2.9802322e-08,0.99665105,7.2717667e-06
0.998592,0.0,1.4603138e-06,2.9802322e-08,9.23872e-07,1.2814999e-06,3.156066e-05,5.9604645e-08,1.5974045e-05,3.4570694e-06
0.26271003,1.4901161e-07,0.00094667077,1.8149614e-05,0.00019147992,1.0102987e-05,0.00050857663,2.130866e-05,0.6496817,0.27105412
0.007175803,1.7881393e-07,0.0008060336,3.6984682e-05,0.0001861453,0.9943993,0.0054493546,6.875396e-05,9.778142e-05,2.56598e-05
0.0012003183,4.172325e-07,6.0498714e-06,0.99940073,0.0001924038,6.4373016e-06,4.3958426e-05,1.937151e-06,0.007886618,1.6987324e-06
0.96938485,0.0,0.0033119023,1.66893e-06,2.026558e-05,0.00013926625,0.0005276799,4.3213367e-06,0.0046424866,0.0012619197
0.0003810227,0.9316851,0.009473801,0.0046895444,0.00012153387,0.004981339,0.05438289,0.0012014508,0.07008195,0.012301147
0.9957723,0.0,5.364418e-06,3.5762787e-07,1.1920929e-07,1.1146069e-05,7.492304e-05,8.34465e-07,0.0008266568,3.0517578e-05
0.99748373,0.0,6.2286854e-06,2.3841858e-07,0.0,6.0796738e-06,9.918213e-05,4.1127205e-06,5.325675e-05,7.4505806e-06
5.877018e-05,0.0075404346,0.0023482442,0.99935836,0.0037776828,0.0036408901,0.025819361,0.0003825426,0.09080967,3.8087368e-05
0.99846506,0.0,2.771616e-06,0.0,0.0,2.5629997e-06,6.759167e-05,2.9802322e-07,0.00015422702,6.4074993e-06
9.825826e-05,3.6358833e-06,0.0008313358,0.00072565675,0.00037419796,0.99901617,0.013388991,9.512901e-05,0.001365304,0.00010627508
2.7686357e-05,0.9854213,0.0013051927,0.0046671927,3.2782555e-07,0.0018526316,0.0023500323,8.156896e-05,0.9468076,0.0007006824
0.9988671,0.0,2.2947788e-06,0.0,0.0,1.5497208e-06,5.057454e-05,8.940697e-08,5.6684017e-05,6.4074993e-06
0.99862564,0.0,2.8312206e-06,0.0,0.0,4.6491623e-06,0.0001077652,4.4703484e-07,3.710389e-05,1.2516975e-06
0.00843215,1.7881393e-07,5.6922436e-06,3.963709e-06,1.5497208e-06,0.0006571412,0.99141586,2.9474497e-05,2.8908253e-05,0.0005041957
0.0015014708,2.9802322e-07,4.3332577e-05,2.115965e-06,0.0,4.7683716e-07,1.2934208e-05,0.99486804,7.6800585e-05,0.0002823472
5.221367e-05,2.9802322e-08,0.0010394454,1.6748905e-05,1.847744e-06,0.99625117,0.05297792,4.3809414e-05,0.00051805377,0.00011077523
2.4050474e-05,0.8671582,0.023226172,0.00024914742,0.0051755607,0.19413778,0.004193276,1.2546778e-05,0.6385396,0.0014968216
0.9989039,0.0,1.32620335e-05,0.0,0.0,1.49309635e-05,8.070469e-05,1.4007092e-06,3.272295e-05,7.1525574e-06
0.0015437901,0.0,7.7843666e-05,0.119871855,4.5210123e-05,3.963709e-06,0.00021857023,2.3841858e-07,0.9937562,2.0563602e-06
0.99868906,0.0,1.7881393e-06,2.9802322e-08,1.1920929e-07,1.4305115e-06,4.1097403e-05,2.682209e-07,1.4781952e-05,4.3809414e-06
9.208918e-06,1.9967556e-06,1.1920929e-05,0.999784,4.5120716e-05,5.990267e-06,0.0002655685,2.592802e-06,5.5909157e-05,1.2814999e-06
0.10539055,2.3841858e-07,0.00029420853,0.00013497472,1.3023615e-05,0.8449353,0.22780675,0.0007444918,0.00011840463,0.0006701648
0.99881923,0.0,2.861023e-06,0.0,1.4901161e-07,2.4735928e-06,2.3037195e-05,3.963709e-06,5.364418e-06,2.5480986e-05
2.6106834e-05,0.0016539991,4.938245e-05,0.00013712049,0.00029823184,0.0036804378,0.9783442,3.5762787e-07,0.91201925,0.0003387928
0.99054193,2.9802322e-08,0.00010973215,1.2427568e-05,1.758337e-06,0.00025561452,0.00022733212,4.6938658e-05,0.003114134,0.00033402443
0.9980854,0.0,2.1755695e-06,2.9802322e-08,1.8775463e-06,5.096197e-06,4.386902e-05,1.1920929e-07,3.9368868e-05,3.054738e-05
0.9985963,0.0,2.3543835e-06,0.0,2.9802322e-08,1.4901161e-06,9.3489885e-05,4.4703484e-07,1.758337e-05,2.592802e-06
0.0066424906,0.0,2.0056963e-05,0.00014355779,1.8775463e-06,3.5762787e-07,0.00014090538,5.9604645e-08,0.9922888,4.5776367e-05
0.05760163,0.0,8.499622e-05,9.223819e-05,1.1622906e-06,3.963709e-06,0.00018528104,1.3113022e-06,0.97203267,8.4102154e-05
0.12265396,0.0,0.00042200089,5.155802e-06,0.00040274858,1.2516975e-06,0.00010791421,1.4126301e-05,0.20779374,0.772135
0.9444885,0.0,6.3329935e-05,9.834766e-07,5.9604645e-07,1.3381243e-05,0.00073969364,2.682209e-07,0.07363325,1.2546778e-05
0.0004441738,2.9802322e-08,3.1292439e-06,0.99832207,0.00012856722,3.7670135e-05,0.0003195107,2.9802322e-06,2.643466e-05,9.23872e-07
0.00039356947,0.0,1.937151e-06,3.2782555e-07,0.0,1.1622906e-06,0.001809001,1.4901161e-07,0.99702144,5.725026e-05
2.1994114e-05,0.00034365058,0.0046990514,0.99865377,0.0002605319,0.00012603402,0.00063452125,4.0233135e-06,0.7182394,4.261732e-06
0.00014624,1.6391277e-06,3.5762787e-06,0.99954736,1.79708e-05,6.7055225e-06,0.00024238229,7.3313713e-06,6.619096e-05,5.722046e-06
0.99417496,0.0,0.00012812018,2.926588e-05,2.9802322e-08,0.00020608306,0.00013196468,0.00041472912,0.0004438758,5.9604645e-05
0.5582604,0.0,9.5665455e-06,1.129508e-05,0.73750556,1.4603138e-06,0.00013417006,0.0,0.1839419,0.00017106533
1.4871359e-05,0.0006072521,0.00018849969,0.9737979,0.9876316,0.010979712,0.64622253,1.1622906e-06,7.4863434e-05,3.7938356e-05
0.9993008,0.0,2.3841858e-07,0.0,1.4901161e-07,3.2782555e-07,6.3598156e-05,0.0,6.377697e-06,2.9802322e-07
0.00029051304,0.0,1.591444e-05,2.6971102e-05,1.8775463e-06,5.0365925e-06,0.00022688508,2.9802322e-07,0.9966542,5.0395727e-05
0.004673183,0.0,0.0005313754,0.0026354194,4.2766333e-05,5.096197e-06,0.0004885495,8.940697e-08,0.99182546,2.8312206e-06
0.0016787946,0.0,2.5480986e-05,0.0020660758,2.9057264e-05,5.662441e-07,0.00017821789,0.0,0.99341017,2.5182962e-05
0.00027817488,0.98260486,0.001167506,8.940697e-05,1.4901161e-07,0.00023061037,0.00048223138,0.0011187494,0.38726282,0.03280562
0.005294621,2.9802322e-08,4.5597553e-06,0.99937844,0.10844681,1.30832195e-05,6.0796738e-05,3.33786e-06,6.3180923e-06,4.5776367e-05
0.00014638901,0.0020898283,0.67444885,0.017960846,0.002769947,0.98872787,0.007652074,0.0009520054,0.0059989095,7.364154e-05
0.05951065,8.046627e-07,0.007070631,0.00010472536,3.9041042e-06,0.97212386,0.050959617,0.0016458333,0.00051662326,0.00053831935
8.8751316e-05,3.8146973e-06,0.0082992315,0.0021896958,0.00022783875,0.9988105,0.022693753,0.00031289458,0.0023249388,4.7683716e-05
0.9877237,1.7285347e-06,0.002492398,0.0008455515,0.0,0.002683133,0.00027140975,0.097711086,0.0021452904,0.0004607141
0.0005348623,0.0,3.516674e-06,0.0002323389,1.1920929e-07,3.874302e-07,0.00013163686,2.9802322e-08,0.99740607,2.592802e-06
0.004117757,0.0,4.4703484e-06,0.00018537045,2.9802322e-08,1.7881393e-07,6.568432e-05,3.5762787e-07,0.99441165,1.6331673e-05
0.002256751,0.0,0.00013688207,3.7431717e-05,2.9802322e-08,1.4454126e-05,0.00033655763,7.3611736e-06,0.9925013,4.428625e-05
0.061918944,0.0,1.1593103e-05,2.8640032e-05,0.0,4.172325e-07,0.00010767579,1.1026859e-06,0.97164047,4.7683716e-05
0.0012668371,0.0,2.9444695e-05,3.33786e-06,6.854534e-07,6.765127e-06,0.00068178773,3.2782555e-07,0.9955727,4.670024e-05
0.0017385185,0.85941684,0.011448145,0.012438357,0.003985375,0.009514362,0.15861663,0.00049963593,0.24526012,0.010908902
1.7762184e-05,0.00056922436,0.12147462,0.9957558,0.0022989213,0.0004995465,0.0023451447,2.6732683e-05,0.44361,1.6152859e-05
0.99811554,0.0,8.106232e-06,5.9604645e-08,5.9604645e-08,1.41859055e-05,0.00025257468,1.3709068e-06,5.8948994e-05,2.1457672e-06
0.0066410005,0.0,6.3598156e-05,8.869171e-05,6.2584877e-07,2.2649765e-06,0.0009688735,1.66893e-06,0.9924809,8.434057e-05
0.24213782,0.0,7.581711e-05,1.1026859e-06,0.0,7.2419643e-06,0.0008407831,6.2584877e-07,0.7653264,2.4735928e-06
0.00059717894,0.038828492,0.001969695,0.0009185076,9.62615e-06,0.0026892126,0.14847773,0.00013700128,0.97414684,0.0011966527
0.7409934,2.7120113e-06,0.066940725,2.115965e-06,3.951788e-05,0.00027167797,0.27661717,6.777048e-05,0.0011073351,0.0016641915
0.9646503,0.0,0.0011913478,2.9802322e-08,1.475215e-05,3.811717e-05,0.00053074956,3.3080578e-06,0.00016859174,0.08493155
0.99913156,0.0,2.682209e-07,0.0,1.7881393e-07,4.7683716e-07,4.145503e-05,0.0,1.7940998e-05,1.4007092e-06
0.99510366,0.0,3.6001205e-05,1.7881393e-06,2.3841858e-07,0.00016504526,0.00037696958,2.3692846e-05,0.0011952221,5.8829784e-05
0.99232113,0.0,4.1276217e-05,1.1116266e-05,2.9802322e-08,3.08156e-05,0.00015464425,0.0003797412,0.00020515919,0.00012871623
0.00023344159,0.872702,0.31138182,0.0011585057,0.24765953,0.008601278,0.04792577,2.4944544e-05,0.0053772926,0.0014806092
0.011374652,0.0,0.0018216968,0.00034061074,9.834766e-07,8.5532665e-06,0.0012411177,2.3245811e-06,0.9875227,4.172325e-05
0.014417857,0.08984348,0.28376943,0.011483043,0.0017633438,0.0032624602,0.009426594,0.023875445,0.13415349,0.099348456
0.99780035,0.0,5.662441e-07,5.9604645e-08,4.5001507e-06,6.2584877e-07,7.405877e-05,0.0,9.0032816e-05,1.847744e-06
0.9952587,0.0,3.4570694e-06,2.682209e-07,1.7285347e-06,5.990267e-06,9.018183e-05,1.1920929e-07,0.0014872253,2.0861626e-05
4.0620565e-05,0.24191746,0.5739257,0.9928609,0.10173288,0.0295555,0.025639832,0.00031340122,0.0011211038,6.645918e-06
9.9778175e-05,0.9842224,0.0030219555,4.965067e-05,7.212162e-06,0.00060108304,0.0017283559,2.2798777e-05,0.18158704,0.001968056
0.005311817,0.0,4.7504902e-05,6.8724155e-05,4.3213367e-06,3.7550926e-06,0.00024291873,4.172325e-07,0.9897938,9.5158815e-05
0.998783,0.0,2.413988e-06,0.0,2.9802322e-08,1.1026859e-06,5.1796436e-05,8.940697e-08,2.9534101e-05,6.377697e-06
0.0004415512,0.0,2.9236078e-05,0.00017812848,5.662441e-07,2.7418137e-06,0.00041794777,5.364418e-07,0.9965364,1.6778708e-05
0.0006631017,2.9802322e-08,0.003057152,0.004555732,0.25189015,2.9951334e-05,0.012387425,0.0,0.99252903,8.404255e-05
0.99815965,0.0,1.4811754e-05,2.9802322e-08,1.7881393e-07,5.751848e-06,8.806586e-05,2.771616e-06,2.1278858e-05,1.3619661e-05
0.00019198656,3.1083822e-05,0.015862942,0.0017996728,0.004466772,0.9711107,0.044733316,5.2124262e-05,0.9120326,0.00040096045
5.8561563e-05,0.65338683,0.19474739,0.037484586,0.087058574,0.9934309,0.0032640696,3.59118e-05,0.47861838,0.00013720989
0.04244882,1.6391277e-06,1.9341707e-05,0.9788214,0.00227049,1.1950731e-05,0.00023278594,3.159046e-05,0.00069981813,0.0003389418
0.99487793,0.0,7.158518e-05,7.95722e-06,0.0,3.9219856e-05,0.00013414025,0.00013649464,0.000218153,1.835823e-05
0.6710657,7.1525574e-07,0.00047057867,5.543232e-06,0.0,5.1259995e-06,0.00020337105,0.38441163,0.00031617284,0.020415366
0.063428134,1.0341406e-05,0.9111923,7.659197e-05,6.350875e-05,2.8640032e-05,0.0013106465,0.00025931,0.05458811,0.0020546317
0.85069835,2.3841858e-07,8.940697e-05,1.4454126e-05,0.0,1.2397766e-05,0.00022172928,0.18528157,0.0010282993,0.010654032
0.9987452,0.0,1.3411045e-06,0.0,1.7881393e-07,7.748604e-07,4.3421984e-05,1.7881393e-07,1.1086464e-05,2.2053719e-06
3.1799078e-05,0.34278548,0.0025279522,0.99035466,0.00065270066,0.0027193725,0.7138075,0.00013747811,0.8728554,2.5838614e-05
0.99798757,0.0,4.762411e-05,0.0,8.940697e-08,1.3291836e-05,6.702542e-05,7.599592e-06,6.467104e-06,0.00022232533
0.24393475,0.0,3.4481287e-05,1.40964985e-05,0.0,2.9802322e-07,8.2969666e-05,2.7418137e-06,0.93666184,0.00018909574
0.00072589517,3.84748e-05,7.6293945e-06,2.2739172e-05,3.886223e-05,0.0010314882,0.98363554,2.115965e-06,0.0058166683,0.0040845275
0.0003527105,1.7881393e-07,2.2947788e-06,0.99955,0.000133425,3.2812357e-05,0.00039625168,2.0086765e-05,3.3080578e-06,1.9669533e-06
0.99907035,0.0,2.3841858e-07,0.0,4.7683716e-07,2.682209e-07,3.9041042e-05,0.0,1.1771917e-05,2.3245811e-06
0.9995106,0.0,1.7881393e-07,0.0,8.940697e-08,5.9604645e-08,3.3527613e-05,0.0,3.516674e-06,5.066395e-07
3.0964613e-05,1.809001e-05,0.0023085475,0.004137814,0.0023067296,0.99909747,0.010461271,0.00011843443,0.0004956722,8.1539154e-05
0.0038109422,8.940697e-08,2.0116568e-05,0.0018760562,8.940697e-08,2.682209e-05,0.0004797578,0.00010442734,0.986984,7.113814e-05
0.0002631843,1.5497208e-06,3.4183264e-05,0.00035095215,2.592802e-06,0.00016474724,0.30290678,3.2484531e-06,0.9900942,3.9368868e-05
0.011419773,0.0,0.00019851327,3.9994717e-05,1.7881393e-07,2.4735928e-06,0.0032164454,1.2516975e-06,0.99038756,4.1425228e-05
0.00028419495,0.0008330941,0.9530825,0.00059232116,0.12223995,0.00031134486,0.014128536,3.5762787e-06,0.25686485,0.0005861819
0.9972334,0.0,8.85129e-06,1.1920929e-07,8.940697e-08,6.6280365e-05,0.00047454238,3.3974648e-06,6.0230494e-05,7.778406e-06
4.428625e-05,0.0,0.0,0.0,8.940697e-08,0.0,0.0,0.0,6.2316656e-05,0.99955297
0.042782217,0.0,0.00019994378,1.5795231e-06,0.9994545,1.3113022e-06,0.00013116002,0.0,2.6524067e-05,3.451109e-05
0.99667037,0.0,5.5909157e-05,1.4901161e-07,5.9604645e-08,1.552701e-05,7.82609e-05,5.6624413e-06,0.00030755997,5.8978796e-05
0.97281647,2.9802322e-08,3.3318996e-05,1.0728836e-06,0.0017361939,3.9875507e-05,0.00033190846,9.23872e-07,0.011771202,0.008900732
0.9978336,0.0,4.142523e-06,8.940697e-08,1.7881393e-07,1.4215708e-05,0.00033417344,2.0861626e-07,0.00018370152,1.6987324e-06
5.018711e-05,0.0,0.0,0.0,8.940697e-08,0.0,0.0,0.0,6.5624714e-05,0.9994297
0.035221517,0.0,4.735589e-05,0.0002233088,8.34465e-07,6.3180923e-06,0.00048089027,6.1661005e-05,0.96962583,0.00070926547
0.9650533,2.9802322e-08,0.00055125356,4.389882e-05,1.4901161e-06,0.0004798174,0.00064206123,9.059906e-05,0.10017738,0.0047974586
0.99926263,0.0,2.9802322e-07,0.0,7.1525574e-07,3.874302e-07,2.7924776e-05,0.0,1.0102987e-05,1.66893e-06
4.890561e-05,1.1920929e-07,1.013279e-06,1.6868114e-05,2.9802322e-07,0.004695028,0.9979198,4.827976e-06,0.00030082464,0.00018805265
8.85129e-06,1.92523e-05,0.010804802,0.0010544062,0.00032824278,0.99937844,0.010269791,7.158518e-05,0.00901702,5.13196e-05
0.03266856,2.9802322e-07,6.175041e-05,0.9593921,5.3346157e-06,7.408857e-05,0.00023415685,0.0049027205,2.3841858e-06,0.00011855364
0.99870193,0.0,1.1593103e-05,0.0,0.0,4.6491623e-06,5.7041645e-05,8.34465e-07,9.208918e-06,1.1622906e-05
0.0006379485,3.784895e-06,8.910894e-06,0.99939334,3.8146973e-05,1.6748905e-05,0.0003323853,1.7046928e-05,3.1262636e-05,6.0498714e-06
2.8133392e-05,0.79041266,0.033497363,0.99841547,3.0100346e-06,0.0040763617,0.0051889718,0.00039112568,0.10891217,3.9041042e-06
0.998701,0.0,4.976988e-06,2.9802322e-08,2.9802322e-08,2.771616e-06,4.1097403e-05,2.115965e-06,1.6272068e-05,1.4722347e-05
0.0007889271,0.00043019652,0.0014780462,0.0036087632,0.890939,0.9870404,0.015318751,7.7188015e-06,2.4914742e-05,0.000151515
0.00034236908,3.2782555e-06,2.348423e-05,0.9993696,1.2516975e-05,1.4483929e-05,0.00025686622,3.4332275e-05,3.8444996e-06,3.427267e-06
0.0008620918,0.0,0.00011438131,0.0021383464,8.940697e-08,9.23872e-07,0.00043320656,1.3113022e-06,0.9969917,2.413988e-06
0.035173893,5.930662e-06,7.906556e-05,0.9775292,0.028909206,7.030368e-05,0.0004709959,6.0260296e-05,0.026403308,0.00096160173
0.004203677,1.1622906e-06,0.00015076995,7.4505806e-07,1.1771917e-05,1.7881393e-07,7.173419e-05,1.9997358e-05,0.0013222098,0.97659814
5.6535006e-05,3.3974648e-06,1.9967556e-06,0.9998317,2.3841858e-07,3.606081e-06,0.0001462698,2.0563602e-05,4.261732e-06,1.1324883e-06
0.040215135,1.2457371e-05,3.5852194e-05,0.00040644407,5.453825e-06,0.0003452599,0.919218,9.3609095e-05,0.26715595,0.00049573183
0.9982299,0.0,2.8312206e-06,8.940697e-08,1.4901161e-07,6.1690807e-06,3.2395124e-05,8.6426735e-07,5.38826e-05,2.8640032e-05
0.99934053,0.0,2.682209e-07,0.0,1.1920929e-07,4.172325e-07,3.6895275e-05,0.0,4.261732e-06,5.662441e-07
0.5252892,1.7881393e-07,0.007850766,3.901124e-05,0.0,0.000118911266,0.0015537143,0.32183647,0.2158947,0.028694183
0.0010967851,9.635091e-05,3.787875e-05,0.011861622,5.1259995e-06,0.0059126318,0.9683125,0.0029660463,0.00016722083,0.00032284856
7.69496e-05,2.8014183e-06,6.4074993e-06,0.9987028,0.0010745823,3.6358833e-06,0.0001951158,5.9604645e-08,0.93126583,3.5464764e-06
0.00026917458,5.7190657e-05,0.052569896,0.00017389655,0.0005351007,0.9898895,0.056315392,0.00053936243,0.11992931,0.0047059357
0.021648735,0.0,0.0004208386,3.2782555e-05,3.516674e-05,2.0772219e-05,0.0011972785,1.0281801e-05,0.96841943,0.0031912029
0.0005951524,0.0027199984,0.83210355,0.0796763,0.37199438,0.006139308,0.07663095,4.9054623e-05,0.9688207,0.0006856024
0.9419248,5.066395e-07,0.000641793,5.00381e-05,0.0,3.9041042e-05,0.0001859963,0.26908237,0.00020435452,0.0006327629
0.00878787,0.0,0.00018554926,0.00040778518,9.179115e-06,6.0796738e-06,0.0004389584,1.9967556e-06,0.98800886,0.00021007657
0.9925486,1.1920929e-07,0.0007613301,4.568696e-05,0.0,0.00033846498,0.00015556812,0.0023869276,0.00046601892,9.995699e-05
0.99672043,0.0,4.827976e-06,5.9604645e-08,1.1920929e-07,5.6028366e-06,5.8591366e-05,4.172325e-07,0.0012463927,1.859665e-05
0.015099376,1.3113022e-06,0.9962182,0.0010998845,0.00028789043,0.00025185943,0.0036288798,0.00016254187,0.0016264915,9.948015e-05
0.9982347,0.0,2.503395e-06,0.0,1.6391277e-06,4.2021275e-06,6.657839e-05,1.7881393e-07,3.644824e-05,6.2584877e-06
0.0009545088,0.0,3.3080578e-05,4.1007996e-05,2.9802322e-08,5.3346157e-06,0.00052314997,6.645918e-06,0.99545455,6.303191e-05
0.46806479,0.0,7.137656e-05,2.5004148e-05,5.9604645e-08,9.834766e-07,0.00033527613,1.1920929e-06,0.90791106,0.00013029575
0.9946569,0.0,0.00024598837,1.1920929e-07,9.894371e-06,0.00015577674,0.00030103326,9.23872e-07,0.00018063188,0.00026074052
0.0033620596,0.0,0.00020119548,2.810359e-05,7.0929527e-06,9.506941e-06,0.00061425567,2.9802322e-07,0.9905874,7.805228e-05
0.025854975,0.0,2.3335218e-05,5.0604343e-05,1.0371208e-05,6.2584877e-07,0.00021961331,8.940697e-08,0.9820374,9.047985e-05
0.011600077,2.3841858e-07,0.9933609,7.149577e-05,0.00040897727,4.0590763e-05,0.0068585277,0.000605464,0.00035265088,0.005531162
0.00042241812,0.0,1.013279e-06,2.5331974e-05,8.21352e-05,5.9604645e-08,0.00065127015,0.0,0.9969336,1.66893e-06
0.012273759,3.2782555e-07,0.0030782223,0.00018340349,0.9900281,5.722046e-06,0.0021816194,5.9604645e-08,0.004304588,0.00438264
0.5837609,0.0,0.00014469028,7.8231096e-05,2.2053719e-06,2.6524067e-06,0.00016117096,1.8179417e-06,0.8357664,0.0008482933
0.0008582175,0.0,1.1384487e-05,1.8388033e-05,1.7881393e-07,2.8312206e-06,0.00017282367,8.940697e-08,0.9953983,7.3611736e-06
0.9988825,0.0,1.6987324e-06,0.0,3.5762787e-07,1.5199184e-06,2.6196241e-05,5.9604645e-08,1.3381243e-05,1.0728836e-05
0.018616974,5.9604645e-08,0.00011655688,0.002462566,1.9401312e-05,4.61936e-06,0.0005078018,1.7881393e-06,0.9835703,0.00022283196
3.5375357e-05,5.850196e-05,0.09068814,0.0039108098,0.00029924512,0.99915975,0.0060804784,0.00027784705,0.4587829,2.6971102e-05
0.39189056,0.0,2.4974346e-05,6.2584877e-07,0.0,4.7683716e-07,0.001093924,2.2649765e-06,0.90369886,6.2286854e-06
0.98188686,0.0,1.6450882e-05,2.95043e-06,1.1920929e-07,8.761883e-06,0.00014570355,1.6987324e-06,0.05205068,0.00012740493
0.9980688,0.0,1.4305115e-06,0.0,8.6426735e-07,3.5762787e-06,2.8073788e-05,8.940697e-08,0.0001398027,2.9116869e-05
0.0027887225,0.0,7.605553e-05,0.00024661422,2.3543835e-06,9.834766e-07,0.00032240152,5.9604645e-08,0.9930725,3.6388636e-05
0.00074338913,5.9604645e-07,0.9982221,0.00083711743,0.0009174645,2.7924776e-05,0.0003556311,2.18153e-05,0.00027811527,3.966689e-05
0.997624,0.0,9.4771385e-06,2.9802322e-08,1.0728836e-06,2.2113323e-05,7.069111e-05,3.5762787e-07,0.00025221705,9.268522e-05
0.9969597,0.0,3.1739473e-05,3.5762787e-07,0.0,8.8989735e-05,0.00017812848,4.8577785e-06,0.00058686733,3.582239e-05
0.9974525,0.0,1.6391277e-05,2.9802322e-07,5.9604645e-08,4.8577785e-06,8.752942e-05,2.8640032e-05,1.7881393e-05,1.7434359e-05
3.6478043e-05,0.092232764,0.2460134,0.0020151138,0.22388703,0.7509916,0.0021986365,2.0563602e-06,0.8646022,0.000106453896
0.9921998,0.0,4.348159e-05,3.7640333e-05,1.1920929e-07,0.00011026859,0.00014534593,1.4036894e-05,0.0021991432,1.4573336e-05
2.5182962e-05,0.987496,0.0003964603,0.0040595233,2.3841858e-07,0.0011835396,0.0026275218,5.0991774e-05,0.96715355,0.00054073334
7.134676e-05,0.943304,0.005206287,8.046627e-06,0.000592947,0.002142936,0.0026130676,0.00012734532,0.026082635,0.034724087
0.98791313,0.0,2.193451e-05,4.6789646e-06,2.0861626e-07,2.3275614e-05,0.00026640296,7.748604e-07,0.013652444,1.6242266e-05
0.0011200607,4.172325e-07,0.00032249093,0.9945691,0.9344392,4.401803e-05,0.00054708123,2.3841858e-07,0.00032186508,9.268522e-06
0.9861718,0.0,0.00015452504,2.503395e-06,5.9604645e-08,4.541874e-05,0.0005325079,2.8312206e-06,0.008891642,6.467104e-06
0.0041745603,0.0,9.23872e-07,6.645918e-06,1.1920929e-07,8.940697e-08,0.00013768673,0.0,0.99416745,6.943941e-06
0.10953528,3.4868717e-06,0.00012597442,1.5199184e-06,5.364418e-07,0.0010406077,0.9237741,2.387166e-05,0.044223398,0.0007132888
0.00014919043,2.7418137e-06,7.4505806e-07,0.9998241,3.7252903e-06,6.467104e-06,0.0005104244,1.1742115e-05,0.00013682246,4.708767e-06
6.8843365e-06,2.2053719e-06,3.874302e-07,8.532405e-05,3.2782555e-07,0.0022917986,0.9965427,3.8146973e-06,0.0001450181,0.0009980798
0.9772072,8.940697e-08,0.000105023384,6.3717365e-05,2.3841858e-07,9.36687e-05,0.00031718612,9.968877e-05,0.046726882,0.00016880035
0.99599576,0.0,0.00063446164,2.7120113e-06,0.0,0.0002938509,0.0003053248,0.0036142766,3.066659e-05,4.7177076e-05
0.00010097027,1.4901161e-07,0.0023285449,3.4570694e-05,6.2584877e-07,0.9184446,0.3935138,0.004541546,1.5109777e-05,0.009295791
0.00031620264,0.0,8.046627e-06,3.6597252e-05,5.9604645e-08,2.1755695e-06,0.00014030933,3.5762787e-07,0.99706507,9.953976e-06
0.0051772594,0.0010356307,0.070616275,0.68115443,0.00038835406,0.00033944845,0.0009442568,1.9878149e-05,0.9508863,5.236268e-05
0.69802874,8.940697e-08,8.907914e-05,0.00017806888,6.80089e-05,6.4969063e-06,0.0001014173,1.3381243e-05,0.7541027,0.013621628
6.443262e-05,0.840256,0.0003272295,0.002222538,1.0102987e-05,0.004015118,0.06471276,2.5779009e-05,0.96221447,0.0021332204
0.9952888,0.0,0.00042891502,1.8775463e-06,1.1920929e-07,0.00028944016,0.00019747019,0.0010879934,1.8328428e-05,0.0002335906
0.998152,0.0,1.0341406e-05,3.5762787e-07,0.0,1.2487173e-05,6.303191e-05,1.7642975e-05,3.3318996e-05,1.0967255e-05
0.00010445714,1.1622906e-06,3.606081e-06,0.9996196,6.5267086e-06,4.6491623e-06,0.00013291836,3.349781e-05,5.814433e-05,1.6272068e-05
0.9991219,0.0,1.2814999e-06,0.0,0.0,2.9802322e-07,4.851818e-05,1.1920929e-07,4.61936e-06,1.4901161e-06
0.036517948,0.0,0.0010597706,3.9041042e-05,1.7881393e-06,5.6028366e-06,0.001336813,1.937151e-06,0.9586335,0.0006251037
0.007329583,3.0696392e-06,3.7372112e-05,1.3977289e-05,0.0,3.8444996e-06,3.4183264e-05,0.97560775,0.0054595172,0.009587914
0.00049614906,0.0,3.4570694e-06,0.00023052096,7.1525574e-07,3.5762787e-07,7.918477e-05,2.9802322e-08,0.99711895,3.1292439e-06
0.00070631504,5.662441e-07,3.3676624e-06,0.9991341,3.6090612e-05,4.529953e-06,0.00016358495,1.2278557e-05,0.0003283322,1.2457371e-05
0.00012207031,0.6195468,0.01905635,3.194809e-05,0.9436885,0.0027580857,0.056928992,5.9604645e-08,0.0062452555,0.0022512972
0.0001257062,0.0,0.0,0.0,0.0,0.0,0.0,0.0,0.0001335144,0.99918294
0.00055509806,7.5399876e-06,9.23872e-06,0.99906725,7.542968e-05,3.1501055e-05,0.00058847666,7.57575e-05,0.00037625432,7.197261e-05
0.00051128864,8.34465e-07,2.95043e-06,0.99960446,7.626414e-05,5.930662e-06,0.0003180802,2.1457672e-06,0.00019985437,1.7285347e-06
0.0006055832,0.0,5.155802e-06,9.903312e-05,1.1920929e-07,4.172325e-07,0.00018292665,1.7881393e-07,0.99764466,4.5895576e-06
0.95067775,0.0,4.6670437e-05,1.7553568e-05,1.2516975e-06,1.463294e-05,0.00034111738,2.7120113e-06,0.09602982,0.00021091104
0.9980854,0.0,7.95722e-06,1.7881393e-07,0.0,1.001358e-05,4.5835972e-05,1.1771917e-05,2.4080276e-05,2.8163195e-05
0.00021067262,0.00013509393,8.791685e-05,0.011128038,4.4703484e-07,0.010758251,0.88097477,0.07260457,0.0015640557,0.0080913305
0.119603306,0.0,0.0002644956,0.0011942983,2.2500753e-05,4.0233135e-06,0.0006875694,1.5497208e-06,0.9716561,0.00014147162
0.9988996,0.0,6.854534e-07,0.0,6.854534e-07,1.3709068e-06,1.9997358e-05,8.940697e-08,1.2457371e-05,8.46386e-06
0.99838233,0.0,4.887581e-06,0.0,1.9669533e-06,2.2053719e-06,4.8607588e-05,2.3841858e-07,1.0788441e-05,7.2419643e-06
0.0014627874,2.2351742e-06,0.0005694032,0.00012978911,0.0,0.00015634298,0.0007188618,0.9480348,0.008957177,0.040567458
0.9962011,0.0,0.00017610192,5.9604645e-08,0.0,7.233024e-05,0.00039818883,4.798174e-06,0.00023588538,8.428097e-05
0.0070950687,3.5762787e-07,9.229779e-05,2.1576881e-05,0.0,3.516674e-06,3.1650066e-05,0.9856734,0.00012972951,0.00013720989
0.000112205744,2.3812056e-05,0.9702824,0.033543468,0.0009524822,0.0011704564,0.0036133826,7.212162e-06,0.97587353,1.2099743e-05
0.0014169514,1.1324883e-06,0.9956727,0.0010678172,0.0014980137,0.00017735362,0.0011270642,1.2814999e-05,0.035040736,2.3812056e-05
0.9972073,0.0,4.133582e-05,0.0,2.5719404e-05,1.9669533e-06,6.67572e-05,2.9802322e-08,7.897615e-06,9.298325e-06
4.9471855e-06,2.0861626e-07,0.004226595,7.337332e-05,6.8843365e-06,0.99976814,0.0047560036,9.328127e-06,0.0011544526,4.6491623e-06
0.9281667,2.9802322e-07,0.0039284527,1.6987324e-06,5.066395e-07,8.46386e-06,7.241964e-05,0.005133271,0.000582397,0.09639937
0.9965409,0.0,0.00014624,7.4505806e-07,0.0,3.9041042e-05,7.930398e-05,0.00026535988,0.00017100573,7.510185e-05
0.0041415393,0.00020202994,0.96019435,0.01260972,0.0080186725,0.0004557371,0.013645351,0.00028261542,0.33774158,0.0015943348
0.0022993088,0.0004324019,0.99455655,0.07812014,0.0008491576,0.0016542375,0.004530072,0.04268506,9.301305e-05,0.0011452734
6.4373016e-06,0.23102781,0.00024855137,0.9949586,0.001996696,0.0065534413,0.9400348,0.0001437366,0.2551871,2.8759241e-05
0.00013282895,6.8843365e-05,0.030014127,0.9896691,0.009171158,0.0005352199,0.0013026297,0.00026467443,0.86125517,0.000595659
0.0020727217,2.1785498e-05,1.0371208e-05,6.556511e-07,4.2915344e-06,3.6656857e-06,0.00035181642,3.4034252e-05,0.01537919,0.9733403
6.92904e-05,0.000805974,0.7382248,0.9521949,0.02269733,0.0007227659,0.00016465783,3.6358833e-05,0.0019237399,5.90086e-06
0.9977628,0.0,1.3142824e-05,8.940697e-08,2.0861626e-07,5.3048134e-06,6.440282e-05,1.9967556e-06,1.8388033e-05,1.3142824e-05
0.44806316,0.0,3.5762787e-06,1.1622906e-06,0.9962623,2.115965e-06,0.00020840764,0.0,0.004889548,8.055568e-05
5.4240227e-06,0.8483257,0.00018942356,0.00021958351,2.9802322e-07,7.82609e-05,0.0019446313,9.536743e-07,0.9803759,8.276105e-05
0.0016361177,0.0,1.3560057e-05,0.0001821518,6.2584877e-07,9.23872e-07,0.00035762787,5.9604645e-08,0.99483824,2.0742416e-05
0.9950198,5.9604645e-08,0.00041240454,1.7851591e-05,0.0,0.0002630651,0.000108242035,0.012148082,3.2663345e-05,0.00015848875
0.9990722,0.0,1.013279e-06,0.0,4.172325e-07,2.7120113e-06,3.6805868e-05,8.940697e-08,1.052022e-05,2.7120113e-06
4.6521425e-05,0.0048436224,0.00015243888,0.98691154,3.4481287e-05,3.9190054e-05,0.0009404421,7.1525574e-07,0.9713011,8.672476e-06
0.4950476,0.0,0.00021910667,6.556511e-06,5.9604645e-08,1.1622906e-06,0.0007587671,8.34465e-07,0.8984531,8.127093e-05
0.0009416044,9.447336e-06,0.99848783,0.0184955,0.0014036298,0.0002578497,0.0007457137,0.00010803342,0.00016921759,2.4825335e-05
0.0009146035,6.1690807e-06,0.9947107,0.0008074641,0.001480639,0.0001501143,0.002660036,3.6895275e-05,0.047670275,7.036328e-05
0.99266696,0.0,0.00022217631,1.5497208e-05,2.9802322e-07,0.00028422475,0.00013440847,2.0980835e-05,0.0013513863,6.389618e-05
0.0023335218,0.0,0.00019091368,5.3048134e-06,2.9802322e-07,9.894371e-06,0.0006875098,2.0861626e-07,0.9938015,1.0102987e-05
0.53120476,5.066395e-06,0.57830894,5.1528215e-05,2.682209e-06,0.00033393502,0.0048311353,0.0004093945,0.0009871125,0.00010180473
0.00065520406,0.8910469,0.024392247,0.00086802244,0.00051900744,0.0019650757,0.008806288,0.0002850294,0.21576667,0.0127027035
0.99818647,0.0,4.3213367e-06,0.0,5.364418e-07,3.6656857e-06,5.7280064e-05,5.9604645e-08,0.000103503466,1.6599894e-05
0.99828345,0.0,4.261732e-06,0.0,3.874302e-07,8.7320805e-06,0.00019854307,2.3841858e-07,4.965067e-05,2.5331974e-06
0.003595978,0.0,0.78698397,0.00021392107,0.00024864078,0.0013317168,0.044618785,2.771616e-06,0.8901334,0.00011101365
0.000119775534,2.4735928e-05,7.033348e-06,0.99888766,2.2828579e-05,4.2021275e-06,0.00036242604,8.940697e-07,0.72377473,8.106232e-06
0.6584983,0.0,2.9414892e-05,2.2411346e-05,8.940697e-08,8.6426735e-07,0.00012606382,1.758337e-06,0.7912543,0.00016489625
0.7068379,5.9604645e-08,0.000107586384,0.0005610585,2.9802322e-07,2.849102e-05,0.001527816,5.3852797e-05,0.8014691,0.00013276935
0.00016617775,0.9428271,0.009689122,0.002788484,0.0004196763,0.012120545,0.015723467,0.00011444092,0.71453106,0.007362932
5.507469e-05,4.5895576e-06,4.4107437e-06,0.9997889,1.3202429e-05,5.8710575e-06,0.00044935942,2.4437904e-06,0.00077208877,1.2218952e-06
0.99860644,0.0,3.427267e-06,0.0,2.9802322e-07,1.1026859e-06,6.0796738e-05,4.172325e-07,5.155802e-06,5.751848e-06
0.9986607,0.0,6.556511e-07,0.0,1.1920929e-07,9.834766e-07,4.836917e-05,5.9604645e-08,2.3335218e-05,4.798174e-06
0.9989641,0.0,5.662441e-07,0.0,2.9802322e-07,2.3841858e-07,0.00018149614,8.940697e-08,1.66893e-06,2.9802322e-07
0.9034649,5.9604645e-08,0.0003001988,1.7881393e-06,4.4494867e-05,2.014637e-05,0.00024294853,6.377697e-05,0.02620399,0.1489433
7.8082085e-06,0.989135,0.0005686283,0.003952354,2.9802322e-07,0.0014416277,0.0026978552,1.4513731e-05,0.9743947,0.0002642274
5.2899122e-05,3.6597252e-05,0.018901438,0.00011181831,8.2850456e-05,0.9982664,0.025779098,7.325411e-05,0.38741878,0.00042155385
0.99911773,0.0,5.9604645e-07,0.0,8.940697e-08,7.748604e-07,7.930398e-05,0.0,1.9282103e-05,1.3411045e-06
0.0014126301,0.047094226,0.6961435,0.0077679753,0.015886515,0.02043593,0.09998098,0.002862662,0.0031494498,0.012051463
0.27163923,3.5762787e-07,0.00047281384,5.9604645e-08,0.0011457205,2.9802322e-07,6.219745e-05,3.695488e-06,0.00054839253,0.903901
0.0019808114,2.3841858e-07,0.029408008,0.0012844801,0.9945173,2.5361776e-05,0.003573805,0.0,0.9683371,4.4316053e-05
0.00043156743,8.940697e-08,0.0015290082,3.6895275e-05,2.95043e-06,0.9887911,0.059877604,0.00013270974,0.0008608103,6.997585e-05
0.9878893,0.0,1.218915e-05,1.8775463e-06,5.555153e-05,5.811453e-06,9.8884106e-05,5.662441e-07,0.0020097196,0.0002565086
0.94441366,1.7881393e-06,0.0009237826,8.34465e-07,0.00061163306,8.136034e-05,0.000248909,3.33488e-05,0.0019674003,0.21301767
0.00010165572,0.9818357,0.0074881315,0.001995176,0.0019795299,0.013147384,0.01778081,9.858608e-05,0.051180422,0.0098828375
0.99824333,0.0,1.66893e-06,0.0,3.2782555e-07,2.8908253e-06,0.0003835261,1.1920929e-07,1.1563301e-05,6.854534e-07
0.021400213,0.0,0.00014862418,0.00012049079,2.2649765e-06,1.6987324e-06,0.00051409006,2.0861626e-07,0.9895358,2.4139881e-05
5.224347e-05,1.591444e-05,2.1100044e-05,0.00012555718,1.1593103e-05,0.0029910505,0.9743114,6.943941e-06,0.7655046,0.0024065971
0.99916196,0.0,1.4901161e-07,0.0,1.7881393e-07,1.4901161e-07,2.6106834e-05,0.0,9.745359e-06,1.3113022e-06
0.00022760034,1.3113022e-06,0.008266866,0.00024595857,2.6583672e-05,0.9988289,0.009007156,0.00016829371,0.031926364,3.4719706e-05
0.7557092,4.142523e-06,0.7088166,0.000117748976,6.854534e-07,0.0003618598,0.00036346912,0.017579794,0.0009473264,0.0029968321
0.0005531311,8.136034e-06,5.5640936e-05,0.99941355,2.1845102e-05,1.04904175e-05,6.747246e-05,1.3411045e-05,4.544854e-05,9.23872e-07
0.3191256,2.9802322e-08,0.031683803,5.364418e-07,3.516674e-06,1.5199184e-06,0.00023964047,0.0011086166,0.00020006299,0.6488233
0.9894263,0.0,1.8775463e-06,3.1292439e-06,2.0861626e-07,2.771616e-06,0.00012177229,4.172325e-07,0.010061562,1.2010336e-05
0.002140522,2.9802322e-07,1.4603138e-06,4.887581e-06,4.5895576e-06,0.0010026991,0.99297583,1.5497208e-05,7.4863434e-05,0.00053197145
0.0015641451,0.0,1.40964985e-05,9.569526e-05,1.4901161e-07,3.2782555e-07,0.0003877282,1.7881393e-07,0.9970434,3.33786e-06
0.00034087896,0.9120376,0.012562782,0.00037628412,0.0038729608,0.0052717626,0.0102831125,0.00017693639,0.008694708,0.04124081
0.9977112,0.0,7.95722e-06,7.748604e-07,2.0861626e-07,2.8163195e-05,0.00022888184,2.1755695e-06,4.5597553e-05,2.1755695e-06
0.10019636,0.05903694,0.00010612607,0.006875485,1.5556812e-05,0.0011497438,0.008052021,0.0009966493,0.7725758,0.020648062
0.99857247,0.0,1.5795231e-06,0.0,0.0,3.2186508e-06,0.00013419986,5.364418e-07,6.109476e-05,4.1127205e-06
0.75018847,8.34465e-07,0.8879441,6.1154366e-05,1.13248825e-05,0.00068590045,0.00096932054,0.00015354156,0.0018160939,0.00016450882
0.983621,0.0,9.775162e-06,6.2286854e-06,0.3179233,3.5464764e-05,0.00012230873,8.940697e-08,0.00018978119,0.000112622976
0.99620587,0.0,0.00023317337,1.2218952e-06,1.7881393e-07,7.683039e-05,6.347895e-05,0.00067457557,3.8266182e-05,0.000392735
0.23214218,2.5004148e-05,0.00012072921,0.00030007958,0.000733763,0.0039299726,0.9161774,0.00038811564,0.00026395917,0.004259169
0.8001335,1.0728836e-06,0.726003,2.092123e-05,1.719594e-05,0.00028920174,0.00072979927,0.00013759732,0.0025658011,0.0013286173
0.17010924,0.0,1.9192696e-05,1.6987324e-06,0.0,5.3048134e-06,0.00012505054,0.920069,2.2411346e-05,0.00029844046
4.6163797e-05,5.1021576e-05,0.014563739,0.0012517571,0.0006849468,0.9991034,0.010390431,8.454919e-05,0.75589144,0.00013828278
5.6743622e-05,2.1874905e-05,0.0005194247,0.99971855,0.012829781,0.00011011958,0.0019942522,5.453825e-06,1.8000603e-05,4.440546e-06
0.025812924,0.0,2.5331974e-05,0.00022608042,7.301569e-06,8.940697e-07,0.00018814206,2.9802322e-07,0.98351645,0.00026798248
0.998945,0.0,3.8146973e-06,0.0,0.0,2.2649765e-06,4.157424e-05,8.940697e-08,2.8401613e-05,2.7239323e-05
0.0028679073,1.680851e-05,0.99492633,0.012514621,0.0060017407,0.0002452135,0.005154431,0.00034549832,0.00016212463,0.00019589067
1.8417835e-05,0.2930349,0.9133347,0.9917629,0.34550148,0.2509122,0.031964034,0.0010743439,0.0036402047,1.1265278e-05
0.9980081,0.0,1.6391277e-06,8.940697e-08,9.536743e-07,4.2915344e-06,2.7388334e-05,2.0861626e-07,0.0001103282,3.0577183e-05
0.0025582612,7.4505806e-07,0.0042459667,0.00093340874,0.0,8.186698e-05,0.00025621057,0.0017717183,0.99128383,5.8174133e-05
5.8323145e-05,2.3841858e-07,1.7881393e-07,2.9176474e-05,2.9802322e-07,0.0011007786,0.99887687,1.0073185e-05,2.631545e-05,0.00022006035
0.0018848479,1.7821789e-05,0.98826003,0.020487964,0.008777708,0.0005905926,0.004132718,3.6865473e-05,0.16293111,7.44164e-05
0.003362596,0.0,1.3798475e-05,4.0858984e-05,2.0861626e-07,6.2584877e-07,0.00051674247,0.0,0.9950391,1.013279e-06
9.530783e-05,0.85790193,0.009954244,0.022386134,0.1908299,0.2028293,0.39249817,5.635619e-05,0.04349616,0.011198074
0.0009368658,3.5762787e-07,4.029274e-05,0.9964651,0.043319702,0.00041279197,0.0019501448,7.033348e-06,1.8835068e-05,2.771616e-06
5.662441e-07,0.9573883,0.0051113665,0.98944426,0.00023397803,0.025741845,0.05308205,7.778406e-06,0.033611953,3.784895e-06
0.8545753,1.4901161e-07,5.6236982e-05,0.0006646812,1.4901161e-07,9.983778e-06,0.00021073222,4.863739e-05,0.44843048,0.00017523766
7.2836876e-05,7.748604e-07,0.004197091,0.0003142357,8.404255e-06,0.9986291,0.018787026,0.00014734268,0.0065569878,3.376603e-05
0.99718785,0.0,1.2874603e-05,9.23872e-07,2.0861626e-07,1.5944242e-05,5.6952238e-05,5.00679e-06,0.00015112758,2.4318695e-05
0.00021064281,0.81874573,0.28996098,0.029613614,0.13571507,0.78819925,0.014002711,0.0007533133,0.010084242,0.0041235983
0.008538276,0.0,1.0281801e-05,2.0831823e-05,0.0,2.682209e-07,7.253885e-05,2.3841858e-07,0.98605466,1.2427568e-05
0.00013282895,2.3841858e-07,0.0004323721,0.9967737,0.86501175,0.00012817979,0.002059728,1.6391277e-06,3.129244e-05,2.4795532e-05
0.0006080568,0.0,4.708767e-06,0.00012236834,1.4901161e-06,2.9802322e-07,0.0001193285,0.0,0.9966997,7.0631504e-06
0.99754447,0.0,2.7120113e-06,6.556511e-07,1.3321638e-05,8.195639e-06,1.7225742e-05,5.364418e-07,0.00010642409,5.7190657e-05
0.0012219548,1.7881393e-07,1.1026859e-06,0.9994762,0.00029036403,3.3676624e-06,0.00014051795,3.2782555e-07,0.00232476,2.2947788e-06
0.9889152,0.0,0.00014656782,2.771616e-06,5.9604645e-08,0.00013574958,0.00027915835,4.5508146e-05,0.011617959,0.0008555651
0.00038528442,0.0,0.0,0.0,7.1525574e-07,0.0,0.0,0.0,4.8816204e-05,0.99675
7.867813e-06,0.020598114,1.8775463e-05,0.9984282,0.031193137,0.012368113,0.94445646,8.055568e-05,7.331371e-05,5.13494e-05
5.2034855e-05,1.3649464e-05,0.012817293,0.0043456852,0.0031874478,0.9996817,0.008924633,0.00017094612,0.00027516484,2.732873e-05
0.9985271,0.0,1.1622906e-06,0.0,7.867813e-06,6.854534e-07,3.2901764e-05,0.0,3.8146973e-06,6.645918e-06
0.0003822446,0.0,0.0,0.0,6.2584877e-07,0.0,8.34465e-07,0.0,0.0010716319,0.98034877
0.07939917,0.0,5.4866076e-05,0.001824677,6.0796738e-06,3.2782555e-06,0.0002773404,1.9073486e-06,0.9691769,4.7266483e-05
0.00090682507,0.0,1.9401312e-05,8.121133e-05,2.2649765e-06,6.854534e-07,0.0003232658,2.9802322e-08,0.9957509,3.1471252e-05
0.058443934,0.0,3.322959e-05,0.0003310144,2.0861626e-07,2.5629997e-06,0.00017419457,2.2947788e-05,0.97215784,0.00013932586
8.8602304e-05,2.8848648e-05,5.841255e-06,0.0002695918,3.1262636e-05,0.0047845542,0.991893,6.7055225e-06,6.4730644e-05,0.0004747808
0.9692379,2.9802322e-07,0.00017905235,0.00017726421,2.0861626e-07,0.0010459721,0.009252071,0.0032827258,0.006012261,0.00024545193
0.026733518,0.009556085,0.84453714,0.00043463707,1.1920929e-07,2.6017427e-05,0.00010228157,0.06054598,0.00013449788,0.0021592975
0.0006708205,0.0,1.9162893e-05,9.840727e-05,8.940697e-08,6.854534e-07,0.00039243698,5.9604645e-08,0.99726355,3.2186508e-06
1.9013882e-05,0.9891386,0.0012460649,0.035929203,1.2785196e-05,0.0071825683,0.024321109,0.0005168319,0.003990978,0.002495259
0.0003117621,0.03230834,0.032465577,0.97831297,0.01080963,0.0028670132,0.0031400323,3.4570694e-05,0.24659786,1.2367964e-05
0.001963079,0.022497892,0.00078839064,2.3841858e-06,1.0728836e-06,2.026558e-06,3.582239e-05,0.0012564957,0.0016657114,0.8014083
0.020702273,1.7881393e-07,0.00015082955,8.46386e-06,0.0,3.8444996e-06,6.7561865e-05,0.9785926,1.9431114e-05,0.00025501847
4.1931868e-05,8.34465e-07,4.6014786e-05,0.99929225,0.0020669699,2.6226044e-06,0.00010514259,5.9604645e-08,0.56269896,1.2516975e-06
0.98335147,0.0,5.555153e-05,1.9341707e-05,1.1920929e-07,2.7954578e-05,0.00011834502,4.053116e-06,0.041065246,4.1663647e-05
0.9987472,0.0,1.2218952e-06,0.0,1.4901161e-07,3.784895e-06,5.7965517e-05,0.0,4.6223402e-05,1.8775463e-06
0.9932929,0.0,9.3489885e-05,9.119511e-06,0.0,0.00018289685,0.00066781044,6.6012144e-05,0.00045207143,1.859665e-05
0.99380827,0.0,1.0251999e-05,8.940697e-08,8.940697e-08,1.9192696e-05,0.00070396066,3.874302e-07,0.0017803907,4.249811e-05
0.00043854117,3.257394e-05,0.13291973,0.009482026,0.979527,0.0012952089,0.022896826,1.4901161e-07,0.9830368,7.6562166e-05
0.0004081428,2.9802322e-07,0.0016970634,0.0016692281,3.761053e-05,0.9994222,0.0049265623,0.00023186207,0.00017905235,4.2021275e-06
0.9983628,0.0,1.5795231e-06,0.0,3.5464764e-06,1.758337e-06,2.5063753e-05,5.9604645e-08,3.7640333e-05,2.1666288e-05
0.99547684,0.0,9.581447e-05,3.33786e-06,1.3709068e-06,9.840727e-05,5.9485435e-05,2.8014183e-05,0.00016283989,0.00017225742
0.9981892,0.0,6.7949295e-06,2.9802322e-08,8.940697e-08,3.963709e-06,7.125735e-05,4.2021275e-06,1.79708e-05,1.1891127e-05
4.428625e-05,0.0,0.0,0.0,8.940697e-08,0.0,0.0,0.0,6.2316656e-05,0.99955297
0.003894031,2.0861626e-07,0.49983266,0.0011845827,0.00021445751,0.0004864335,0.025803685,6.3180923e-06,0.9570775,0.0003719628
0.009877712,0.00012001395,0.9665853,6.374717e-05,0.00047561526,4.9233437e-05,0.00047838688,0.0001476109,0.0046706796,0.0004982352
0.0037459135,0.00027143955,2.8848648e-05,2.8550625e-05,4.082918e-05,0.00018838048,0.5189328,2.3543835e-06,0.9514439,0.00088500977
0.0084885955,9.5665455e-06,0.0017161965,0.0010282993,0.12518221,0.97897524,0.010194391,3.427267e-05,0.00064894557,0.00010430813
0.107450426,3.7252903e-06,0.0004965961,0.00010240078,2.115965e-06,8.6426735e-07,4.5835972e-05,0.0047100782,0.008021742,0.83439636
0.0026154518,2.9802322e-07,5.8710575e-06,0.9968847,0.0005452335,3.33786e-06,9.742379e-05,4.5597553e-06,0.000120043755,2.2917986e-05
0.0007867813,3.2782555e-06,0.017946482,0.009119332,0.89212704,7.238984e-05,0.032913983,1.4901161e-07,0.9895817,5.2034855e-05
0.9990554,0.0,4.7683716e-07,0.0,1.1920929e-07,6.854534e-07,2.6285648e-05,0.0,2.9087067e-05,5.990267e-06
0.835189,5.9604645e-07,0.00220415,0.0073944926,3.5762787e-07,0.0002477169,0.00039693713,0.003531754,0.23717779,0.002266854
0.9987725,0.0,1.2218952e-06,0.0,2.9802322e-07,2.682209e-06,5.108118e-05,5.9604645e-08,7.3075294e-05,6.1392784e-06
0.0005862713,0.0,1.7434359e-05,0.00014579296,8.672476e-06,1.8775463e-06,0.00023260713,0.0,0.9959202,1.2874603e-05
0.00038838387,0.37816888,0.00032696128,0.009156346,7.599592e-06,0.001411736,0.039267063,7.900596e-05,0.96961665,0.00073957443
0.9986558,0.0,1.5199184e-06,0.0,2.2649765e-06,7.4505806e-07,5.6535006e-05,0.0,9.179115e-06,9.089708e-06
0.3504829,2.682209e-07,0.93641543,2.6375055e-05,0.0003167987,6.3329935e-05,0.0017569661,4.518032e-05,0.0011443794,0.0011312068
5.3286552e-05,0.0042515397,0.0010259151,0.98598874,0.03125286,0.013256013,0.11118713,3.2424927e-05,0.9287609,0.00010025501
0.9796925,1.4901161e-07,0.0006271601,0.00012734532,0.0,8.302927e-05,0.0003347695,0.028098881,9.0152025e-05,0.00025931
0.00073337555,3.8444996e-06,0.994602,0.006514162,0.0036125183,0.00037276745,0.0049764216,5.3167343e-05,0.030570954,5.3793192e-05
0.0007661879,0.00012862682,0.00015306473,0.0003478229,7.6293945e-06,0.0016729534,0.9856525,0.000110924244,0.097753644,0.0036209822
0.00095421076,0.0,2.9206276e-06,0.0,2.9802322e-07,0.0,1.847744e-06,2.0861626e-07,0.001144737,0.9942689
0.9968582,0.0,3.427267e-05,2.0861626e-07,4.172325e-07,3.132224e-05,8.9764595e-05,6.6161156e-06,7.712841e-05,0.00011521578
0.0030997097,1.7881393e-07,0.0026388466,0.0002284348,3.361702e-05,0.99429345,0.012445509,0.00014516711,0.00021272898,1.5199184e-05
7.4505806e-07,0.9338958,0.0008150637,0.99514425,1.66893e-06,0.001362145,0.023300469,7.0631504e-06,0.91293424,1.0728836e-06
5.5760145e-05,9.298325e-06,0.0011275113,0.00018647313,7.3850155e-05,0.9809513,0.26794606,0.00014099479,0.0094050765,0.0014909804
0.003691882,3.695488e-06,0.996053,0.00087320805,4.261732e-06,2.5480986e-05,0.0003272891,0.14227787,0.00018247962,0.021204114
0.018313289,1.1920929e-07,5.850196e-05,0.000114262104,5.364418e-07,2.0325184e-05,0.00096705556,0.000813663,0.9276955,0.03205073
0.0001321435,0.98125935,0.0056450367,0.001247257,0.0010695755,0.010402858,0.015509814,0.00016713142,0.0038660467,0.017275572
2.7477741e-05,0.0008238554,0.9256829,0.8833959,0.013330519,0.0014560223,0.0027653873,2.3841858e-06,0.97760504,5.4240227e-06
0.0017079711,0.0,2.8759241e-05,0.0016234219,0.0,3.784895e-06,0.00023081899,0.00036475062,0.9901715,0.00018772483
0.00015667081,0.0021114647,0.0047181845,0.99566275,0.98016053,0.62206244,0.12067121,0.00095522404,7.6293945e-06,5.1885843e-05
0.9985923,0.0,2.7120113e-06,0.0,2.9802322e-08,1.758337e-06,5.197525e-05,2.0861626e-07,3.8057566e-05,1.1205673e-05
0.99874985,0.0,4.7683716e-07,0.0,9.834766e-07,5.662441e-07,3.4809113e-05,2.9802322e-08,3.027916e-05,3.0100346e-06
0.00021520257,9.23872e-07,0.056643933,0.00014799833,1.6570091e-05,0.95071757,0.08459452,0.0016705394,0.0010019243,0.000672251
0.0018797815,2.9802322e-08,0.00012850761,1.2218952e-06,0.0,8.34465e-07,1.3828278e-05,0.99623656,1.7791986e-05,0.00014197826
4.3213367e-06,1.4901161e-07,0.0033446252,0.00029861927,7.5399876e-06,0.99986035,0.0043611526,2.4020672e-05,0.0018663406,2.8908253e-06
0.0010181069,1.7881393e-07,0.00089660287,0.00044679642,6.273389e-05,0.99824727,0.018076241,0.00021240115,0.00011438131,2.3573637e-05
3.6507845e-05,2.0861626e-07,0.009216756,8.404255e-06,3.6358833e-06,0.99913704,0.0152492225,8.225441e-06,0.027333736,4.2527914e-05
0.0029784143,0.0,1.6629696e-05,0.0,1.2218952e-06,0.0,1.937151e-06,2.9802322e-07,0.002009809,0.9891554
0.0011969805,1.013279e-06,0.99816084,0.00047796965,0.0007003844,8.016825e-06,0.0006005466,0.0003132522,6.6936016e-05,0.00063303113
8.037686e-05,3.3527613e-05,7.814169e-05,0.999071,8.046627e-07,1.6361475e-05,0.00013512373,0.001878202,9.152293e-05,0.00012907386
0.957874,0.0,2.926588e-05,1.3411045e-06,1.49309635e-05,4.6491623e-06,0.0001874268,2.3841858e-07,0.12807062,0.00033199787
0.99882424,0.0,1.4603138e-06,0.0,2.9802322e-08,1.2218952e-06,5.438924e-05,1.7881393e-07,1.5228987e-05,5.364418e-06
0.6194311,3.5762787e-07,0.00045463443,2.503395e-06,8.940697e-08,0.060557574,0.0036217272,0.0024693608,0.001331985,0.004099816
0.06451085,1.04904175e-05,0.00036370754,0.0004503727,6.2584877e-07,0.0022331476,0.93164325,0.0015537739,0.077307105,0.0008702576
0.0003861189,1.4126301e-05,0.99641633,1.0251999e-05,0.033955097,7.122755e-05,0.0007607639,2.6971102e-05,0.0047062635,0.00015890598
0.013783246,2.9802322e-08,0.00083592534,3.7938356e-05,6.3180923e-06,0.9875828,0.0061193407,0.00017100573,1.21593475e-05,1.2040138e-05
0.99018043,0.0,7.775426e-05,1.22487545e-05,7.1525574e-07,0.00017818809,0.0001398921,4.813075e-05,0.006870389,0.0009177625
0.16519588,2.9921532e-05,0.0002887845,3.5762787e-07,8.34465e-07,4.4703484e-07,2.8282404e-05,0.0001489222,0.0024564862,0.8139639
0.00030067563,6.070733e-05,0.036260605,0.0022836328,0.00016772747,0.9920513,0.032053083,0.0021198988,0.40149805,0.00048065186
0.6567074,6.145239e-05,0.18655506,0.0028066337,0.0001731515,0.0033389628,0.009203404,0.054433525,0.00036853552,0.12012398
0.0001975596,5.066395e-07,0.0023988187,0.0010299683,3.6895275e-05,0.99912965,0.015504569,0.00039306283,0.0033152997,3.120303e-05
0.99628234,0.0,0.00011140108,6.2584877e-07,0.0,1.0430813e-05,5.030632e-05,0.0007317066,1.22487545e-05,8.690357e-05
0.62828195,0.0,9.447336e-06,0.002058506,1.1920929e-07,2.1755695e-06,0.00013899803,4.7683716e-06,0.7705894,2.4706125e-05
0.00041237473,0.039653093,0.530102,0.017080516,0.009287626,0.9859,0.0019910634,0.00024703145,0.037293136,8.663535e-05
0.99366593,0.0,2.9742718e-05,6.0498714e-06,6.854534e-07,5.2809715e-05,0.00010442734,3.3080578e-06,0.0026038885,2.9683113e-05
5.9604645e-05,0.00047817826,2.1547079e-05,0.9962802,0.018750161,0.0014230013,0.76252913,3.5256147e-05,5.4508448e-05,5.751848e-06
0.99713147,0.0,3.427267e-06,1.013279e-06,1.7881393e-07,1.0162592e-05,3.3527613e-05,6.7055225e-06,0.00015467405,5.2660704e-05
0.00036248565,1.0430813e-06,1.1086464e-05,0.99935484,0.00022122264,6.198883e-06,0.00012719631,9.5665455e-06,3.990531e-05,1.218915e-05
0.9939934,0.0,4.1127205e-06,1.7881393e-07,8.940697e-08,2.592802e-06,5.415082e-05,2.0861626e-07,0.006258011,3.0994415e-05
0.06365353,0.0,1.5765429e-05,2.4676323e-05,3.0696392e-06,7.5399876e-06,0.00015336275,2.115965e-06,0.9548913,0.0005798936
0.00017550588,0.0049495697,0.012445271,0.0058594346,0.002111286,0.98294246,0.041145176,0.0001424849,0.0011982918,0.00065505505
0.00021257997,1.0430813e-06,1.564622e-05,0.9991863,0.00048726797,7.0899725e-05,0.0005970895,2.7656555e-05,3.2365322e-05,7.1823597e-06
0.9978974,0.0,4.1127205e-06,8.940697e-08,6.2584877e-07,6.2286854e-06,7.587671e-05,2.682209e-07,4.172325e-05,7.1823597e-06
0.00023677945,0.0,1.4066696e-05,2.1874905e-05,6.854534e-07,9.834766e-07,0.0001128912,8.940697e-08,0.99710536,1.3709068e-05
0.1057075,3.0457973e-05,0.9748673,0.0030706823,0.00018307567,0.00020760298,0.0027358234,0.004882902,0.00012660027,0.0035443902
0.0011580288,0.9040723,0.039181203,0.00021386147,0.00027313828,0.0010858476,0.0029035509,0.00068712234,0.0011309683,0.022846043
0.9982672,0.0,1.6391277e-06,8.940697e-08,2.413988e-06,1.937151e-06,4.9114227e-05,1.1920929e-07,2.7179718e-05,4.440546e-06
0.0011391342,5.9604645e-08,1.6987324e-06,0.0001347065,0.0,5.9604645e-08,4.029274e-05,8.940697e-08,0.9965492,2.5331974e-06
0.99689794,0.0,1.758337e-06,1.4901161e-07,1.7881393e-06,3.784895e-06,6.3598156e-05,2.9802322e-08,0.0004133284,6.4074993e-06
0.00027611852,0.0013650358,0.9021269,0.50819033,0.127231,0.022667319,0.24453542,0.00017237663,0.92023474,0.00012689829
0.07529524,0.0,3.606081e-05,0.0019982457,2.0861626e-07,1.6391277e-06,0.00015684962,5.1259995e-06,0.9576977,2.9087067e-05
0.99869657,0.0,1.2516975e-06,0.0,6.854534e-07,1.4305115e-06,3.0010939e-05,8.940697e-08,1.8656254e-05,1.30832195e-05
0.9981766,0.0,9.23872e-06,6.2584877e-07,0.0,1.5199184e-05,0.00011456013,0.00015595555,5.6922436e-06,7.3611736e-06
0.19291213,2.9802322e-08,8.5532665e-06,7.748604e-07,4.7683716e-07,0.00022569299,0.9645914,2.014637e-05,1.719594e-05,4.6938658e-05
0.97794855,0.0,8.5532665e-06,9.834766e-07,7.4505806e-07,3.3676624e-06,0.00013417006,2.9802322e-07,0.04844269,8.833408e-05
0.9685586,0.0,0.00010293722,1.847744e-06,1.9073486e-06,4.0709972e-05,0.00051665306,2.592802e-06,0.15186042,0.00087431073
0.0052271783,0.0,5.4836273e-06,3.582239e-05,5.9604645e-08,1.1920929e-07,0.00024867058,0.0,0.99191415,6.377697e-06
0.99562013,0.0,6.3955784e-05,3.0994415e-06,1.1622906e-06,0.00037321448,0.00048461556,5.5879354e-05,0.000107616186,6.967783e-05
0.00082084537,0.0,0.0002591312,5.4210424e-05,1.1622906e-06,1.7464161e-05,0.0011563599,2.682209e-07,0.9967948,7.5101852e-06
0.00027871132,5.9604645e-08,0.00017511845,0.99139786,0.9981129,2.9474497e-05,0.001465708,0.0,0.0013032854,1.2516975e-06
0.99811876,0.0,3.0100346e-06,0.0,5.9604645e-08,1.1980534e-05,7.468462e-05,1.1920929e-07,0.00013956428,1.14142895e-05
0.94204175,0.0,0.00024601817,5.3048134e-06,1.7881393e-07,7.5399876e-06,0.00024417043,6.467104e-06,0.19061321,0.00013968349
0.9448151,2.9802322e-08,0.00048720837,0.00010097027,2.9802322e-08,0.00012362003,0.0012539923,0.00013187528,0.08325559,2.3931265e-05
0.0004949868,1.1622906e-06,1.1771917e-05,1.2874603e-05,3.0696392e-06,0.010367423,0.98449624,4.827976e-06,0.0005759597,0.0017153025
0.0021521747,4.0233135e-06,0.00043782592,4.8696995e-05,0.0,0.0001065433,0.00090253353,0.9198215,0.015351355,0.056375057
0.00015693903,0.0002169311,0.00027871132,0.9982389,3.424287e-05,0.0022832453,0.010983825,0.00914529,1.9550323e-05,8.460879e-05
0.00023588538,1.4901161e-07,7.599592e-06,6.0409307e-05,1.1920929e-06,0.036957562,0.98993325,8.893013e-05,0.0008704066,0.00068983436
0.00069049,0.018885225,0.11611059,0.004278213,0.72092026,0.008130699,0.28728253,2.2053719e-06,0.87614906,0.00075140595
0.00083330274,6.854534e-07,0.9983965,0.00092446804,0.0007801354,0.00018182397,0.0038092434,9.655952e-06,0.037148923,5.811453e-06
0.0012151301,0.0,1.1831522e-05,1.3589859e-05,1.1920929e-07,5.543232e-06,0.00019001961,4.7683716e-07,0.99494,2.014637e-05
0.99651134,0.0,2.5361776e-05,3.6358833e-06,2.3841858e-07,3.8444996e-05,0.00010418892,1.129508e-05,7.5519085e-05,9.089708e-06
0.99474764,2.9802322e-08,0.00019147992,1.4036894e-05,0.0,0.00027668476,0.00018024445,0.0007778704,0.00011381507,7.1287155e-05
0.0006918013,2.3841858e-07,7.2419643e-06,0.9989004,0.0009898841,9.298325e-06,9.88245e-05,2.5182962e-05,8.314848e-06,1.8298626e-05
0.00026372075,1.6093254e-06,1.7493963e-05,0.99927056,0.00020751357,2.1278858e-05,0.00021511316,4.351139e-05,1.8954277e-05,1.963973e-05
0.0038657188,0.0,7.882714e-05,6.201863e-05,0.0,2.9206276e-06,0.00038799644,4.7683716e-07,0.9919828,4.7683716e-07
0.9981016,0.0,3.993511e-06,8.940697e-08,1.4007092e-06,3.9339066e-06,3.629923e-05,2.0861626e-07,2.1904707e-05,9.298325e-06
0.9954327,0.0,5.683303e-05,2.0861626e-07,2.861023e-06,3.489852e-05,0.00024855137,1.013279e-06,7.340312e-05,2.9742718e-05
0.27647614,1.7881393e-07,6.854534e-06,1.2814999e-06,6.854534e-06,0.00025576353,0.8746848,6.8843365e-06,0.00012940168,0.00016799569
0.00080287457,8.136034e-06,1.4066696e-05,0.00051119924,1.0311604e-05,0.0029284358,0.9932191,0.00025722384,0.0001437366,0.0013913214
0.9826379,8.940697e-08,0.00014579296,8.738041e-05,1.1920929e-07,0.00024601817,0.00064608455,7.280707e-05,0.057548285,0.00010314584
0.09170249,3.5762787e-07,2.8282404e-05,2.4586916e-05,1.3202429e-05,0.0010287464,0.9310962,1.1086464e-05,0.00038322806,9.727478e-05
0.03477636,0.0,6.848574e-05,0.00013029575,5.066395e-07,7.44462e-05,0.004881799,8.401275e-05,0.961332,0.0009750724
0.5329774,0.0,8.46684e-05,0.0002887547,2.0861626e-06,2.2351742e-06,0.00017797947,1.758337e-06,0.86291903,0.00035625696
0.0009407699,0.0,3.656745e-05,0.0012506247,2.1576881e-05,2.503395e-06,0.000320673,1.1920929e-07,0.9947412,5.5104494e-05
1.13248825e-05,0.99383557,0.00031527877,0.0048200786,1.1920929e-07,0.0016597509,0.003086716,2.5480986e-05,0.97309506,0.0003311634
0.0046811104,0.0,0.00016307831,8.496642e-05,4.2021275e-06,3.1590462e-06,0.0008740425,4.7683716e-07,0.98874795,0.00027510524
0.001570046,1.4007092e-06,0.99616057,0.0032551885,0.0012697577,0.0002693236,0.0011892617,1.12354755e-05,0.05547896,1.3917685e-05
0.0008662641,0.9413804,0.15991488,0.41417393,8.445978e-05,0.011044711,0.006520301,0.012396961,0.0055578053,0.0025435686
0.5441686,0.0,0.000118762255,0.000582695,2.7120113e-06,6.377697e-06,0.00035226345,7.212162e-06,0.86762404,0.00020313263
6.0468912e-05,0.96164465,0.0007172823,0.009161681,5.543232e-06,0.0043295026,0.01814115,4.7177076e-05,0.9498775,0.001160264
0.00047558546,0.9802364,0.0021905303,0.005855739,1.013279e-05,0.003900677,0.005733222,0.0004132688,0.6672284,0.00927183
0.002129972,0.5001002,0.0025098026,0.0001526177,2.9802322e-05,0.00018876791,0.001180917,0.0044635534,0.00073748827,0.46216193
6.377697e-06,1.2516975e-06,0.00070503354,0.00070649385,0.00012505054,0.99984384,0.0061182976,3.59118e-05,0.003848821,1.0460615e-05
0.00012591481,0.8506578,0.016387284,0.0010834932,0.8924755,0.03161022,0.0802336,9.983778e-06,0.00068968534,0.011760533
0.00017052889,4.23193e-06,0.9972819,0.005076587,0.0006968677,0.00047960877,0.0040443838,1.2040138e-05,0.64963955,8.34465e-06
0.9856429,2.0861626e-07,0.000451535,6.2584877e-07,1.1473894e-05,4.786253e-05,0.00013813376,0.00026896596,0.000441283,0.030161321
0.00017675757,0.0041585565,0.010849774,0.8656076,0.72518295,0.99802464,0.04184389,0.0007428825,0.0014087558,4.87864e-05
0.9944101,0.0,3.3676624e-06,4.4703484e-07,0.00029295683,5.185604e-06,7.095933e-05,2.9802322e-08,0.0004956722,2.6732683e-05
1.6361475e-05,0.02872008,0.0046013296,0.99918187,0.052361906,0.15332907,0.36271134,0.0004132688,0.15067941,4.7653913e-05
0.04540643,1.4305115e-06,0.00029838085,0.00011396408,0.0,6.5267086e-06,7.969141e-05,0.95414615,8.583069e-06,0.0008238256
0.991242,2.9802322e-08,0.0005507171,1.2814999e-06,1.1920929e-07,0.00015962124,0.0012389123,0.00022691488,0.00023722649,0.00012487173
0.9965304,0.0,0.0001770258,1.4901161e-07,2.1755695e-06,5.8054924e-05,0.00080895424,3.9041042e-06,9.000301e-06,1.8417835e-05
0.9975072,0.0,9.387732e-06,2.3841858e-07,2.3841858e-07,1.54078e-05,6.4343214e-05,9.23872e-07,0.00015372038,2.3931265e-05
4.428625e-05,0.0,0.0,0.0,8.940697e-08,0.0,0.0,0.0,6.2316656e-05,0.99955297
0.0044001937,4.801154e-05,0.0001654923,0.0015788376,0.0,0.0009875298,0.8583323,0.16644555,0.11086726,0.0009879172
0.0002706945,0.0,1.2397766e-05,6.979704e-05,5.930662e-06,6.4969063e-06,0.00044116378,1.7881393e-07,0.99634194,3.9428473e-05
0.00047805905,0.0,3.9041042e-05,0.9952593,0.721761,3.4928322e-05,0.0003283322,1.1622906e-06,0.00024089217,0.00020393729
0.12187049,1.9669533e-06,0.48134106,0.00015377998,0.0022313297,5.5015087e-05,0.008281261,0.0011641681,0.012106895,0.29653984
1.1950731e-05,0.069790214,0.12130302,0.988405,0.00012099743,0.033654273,0.2081106,0.0004504919,0.5698014,5.364418e-06
0.0003374815,0.0,4.711747e-05,3.5971403e-05,1.5199184e-06,1.0371208e-05,0.00054726005,1.4901161e-07,0.9973745,9.119511e-06
0.998178,0.0,1.9669533e-06,0.0,0.0,1.4305115e-06,9.313226e-05,8.940697e-08,0.00033664703,4.887581e-06
0.0019099414,3.3974648e-06,0.000106334686,0.0003387928,1.1950731e-05,0.0058751106,0.9810253,3.287196e-05,0.0004734993,0.00011497736
0.9986779,0.0,1.937151e-06,0.0,1.1026859e-06,1.3113022e-06,1.9013882e-05,2.682209e-07,1.3947487e-05,2.5987625e-05
0.00013807416,0.016200066,0.006065339,0.96542233,0.91265416,0.991776,0.09633118,0.0004183352,0.00029060245,6.207824e-05
0.52890825,5.7816505e-06,0.6255406,5.0365925e-05,4.7683716e-07,4.4375658e-05,0.0005607903,0.0022482276,0.009331167,0.0057866275
0.00065246224,1.1920929e-07,4.440546e-06,0.9990635,0.0012497604,2.4735928e-05,0.00019073486,1.4066696e-05,2.5004148e-05,1.4483929e-05
0.3562873,8.940697e-08,7.033348e-06,1.3113022e-06,1.9073486e-06,0.00063076615,0.8650085,3.632903e-05,1.5169382e-05,0.0001078248
0.05597341,1.4901161e-07,6.809831e-05,4.6491623e-06,0.0,5.2452087e-06,8.916855e-05,0.95690393,7.8082085e-06,0.00021383166
7.507205e-05,2.5182962e-05,0.0001142025,0.99917376,0.001252234,2.8282404e-05,0.0008098483,1.5199184e-06,0.007948399,4.261732e-06
3.1530857e-05,0.9938853,0.00053304434,0.00042048097,1.2218952e-06,0.001451999,0.0025777519,3.2126904e-05,0.7810211,0.002650112
3.5464764e-05,0.0,0.0,0.0,0.0,0.0,0.0,0.0,0.00015482306,0.9994987
0.0023374856,0.0,2.682209e-07,0.0,1.5199184e-06,0.0,0.0,0.0,0.0022625327,0.9941728
0.88928974,0.0,7.811189e-05,1.4334917e-05,1.1920929e-07,4.4107437e-06,0.00036880374,1.3113022e-06,0.3272457,7.4505806e-06
0.00014457107,3.5762787e-07,0.0012499988,0.00029876828,6.4343214e-05,0.9992614,0.014207661,0.00015002489,0.004322499,3.2633543e-05
0.0002245903,7.4505806e-07,0.00015723705,0.99665964,0.9988162,0.00030735135,0.003604114,1.4901161e-07,0.0004709959,6.0796738e-06
0.00041931868,5.9604645e-08,1.463294e-05,1.847744e-06,0.0,5.364418e-07,1.680851e-05,0.9976642,2.9414892e-05,7.620454e-05
0.0029818416,0.0,8.85129e-06,2.4288893e-05,6.854534e-07,2.9802322e-07,0.00045150518,1.1920929e-07,0.99367464,3.272295e-05
0.99875987,0.0,4.3809414e-06,0.0,0.0,2.413988e-06,4.863739e-05,2.771616e-06,1.7672777e-05,1.3947487e-05
0.007971555,5.662441e-07,2.6673079e-05,2.348423e-05,0.0,6.8843365e-06,0.00010728836,0.9854803,0.00081032515,0.00027909875
0.00057440996,3.2782555e-07,0.9985975,0.00075635314,0.0018205941,1.6868114e-05,0.0006208122,8.136034e-06,0.00050887465,2.0980835e-05
0.0006353557,0.0,1.8030405e-05,0.00010076165,2.0861626e-07,3.2782555e-07,0.00013124943,0.0,0.99663687,5.3346157e-06
0.0014132857,3.8146973e-06,4.118681e-05,0.00017631054,7.867813e-06,0.01117295,0.9824469,6.365776e-05,0.006016612,0.003124535
0.051932514,5.9604645e-08,2.9742718e-05,6.6280365e-05,1.4901161e-07,6.7055225e-06,0.00039491057,6.908178e-05,0.96965003,0.00089764595
6.1392784e-06,1.4305115e-06,0.0007779002,0.000108897686,3.6269426e-05,0.99912155,0.02881518,6.7055225e-06,0.0030649006,6.493926e-05
0.98053324,5.9604645e-08,9.3728304e-05,6.642938e-05,8.940697e-08,3.9607286e-05,0.0001295805,0.0003761351,0.010303855,0.00027152896
0.99399704,0.0,0.00014030933,1.180172e-05,2.9802322e-08,0.00016456842,0.00012633204,0.0019328594,0.00017312169,0.00021374226
0.00016063452,0.0319978,0.00095394254,1.0311604e-05,3.9756298e-05,1.92523e-05,0.0007607937,3.2782555e-06,0.8821087,0.002249539
0.00045841932,1.7881393e-07,3.5762787e-07,3.3080578e-06,6.854534e-07,0.0003708005,0.9983032,2.592802e-06,4.23491e-05,0.00026354194
0.9988446,0.0,1.013279e-05,0.0,0.0,2.8312206e-06,7.6174736e-05,3.1292439e-06,2.1547079e-05,1.2785196e-05
3.3020973e-05,1.7613173e-05,4.9889088e-05,0.99974227,2.2619963e-05,1.8656254e-05,0.00019678473,4.220009e-05,0.00022986531,5.275011e-06
0.00020560622,1.4901161e-07,5.6624413e-06,4.7683716e-06,0.0,1.1920929e-07,1.898408e-05,0.9976142,9.062886e-05,0.0002528429
0.0014668107,0.0,2.8938055e-05,2.0831823e-05,2.3841858e-07,4.4703484e-06,0.00038206577,4.172325e-07,0.996261,9.030104e-06
0.05605331,0.010865748,0.00044316053,4.6491623e-06,9.536743e-07,1.7136335e-05,0.0003323853,7.57575e-05,0.48961776,0.015372902
9.6440315e-05,1.7881393e-07,2.783537e-05,1.758337e-06,0.0,7.748604e-07,1.7940998e-05,0.99796265,0.00024324656,0.00035849214
0.00015968084,3.9041042e-06,2.115965e-06,9.825826e-05,2.0861626e-06,0.0007945001,0.9957724,1.6480684e-05,0.00013247132,0.0015120208
0.05639103,0.0,9.9390745e-05,1.0222197e-05,0.0,5.6624413e-06,0.0010675192,5.811453e-06,0.97841704,2.6285648e-05
4.428625e-05,0.0,0.0,0.0,8.940697e-08,0.0,0.0,0.0,6.2316656e-05,0.99955297
0.00021314621,0.98356,0.0007240474,0.0043623745,2.3841858e-07,0.0016743541,0.002284199,0.0019831061,0.79797494,0.020941138
0.02380097,0.0,4.5359135e-05,0.00013104081,8.940697e-08,4.082918e-06,0.00022998452,4.9114227e-05,0.98414814,0.0002259016
3.8295984e-05,1.0728836e-06,0.00081285834,0.0029572546,0.00026527047,0.99927306,0.00834471,0.00021705031,1.8954277e-05,1.2129545e-05
0.9986447,0.0,1.0728836e-06,0.0,4.7683716e-07,1.9073486e-06,2.9295683e-05,2.9802322e-08,3.117323e-05,1.4126301e-05
0.9973129,0.0,5.453825e-06,5.364418e-07,2.9802322e-08,1.9401312e-05,0.00021392107,2.4437904e-06,0.0005169809,6.2286854e-06
0.9922333,0.0,6.455183e-05,3.0398369e-05,8.940697e-08,9.295344e-05,0.00010609627,0.00088843703,0.00052794814,0.0003311038
0.9971061,0.0,0.00028675795,8.940697e-08,5.066395e-07,7.259846e-05,0.0006159544,1.218915e-05,8.940697e-06,2.3335218e-05
0.000341475,0.0,2.1070242e-05,5.9992075e-05,1.0728836e-06,1.5199184e-06,0.00047323108,2.9802322e-08,0.99806416,2.1755695e-06
0.9984978,0.0,3.0100346e-06,2.9802322e-08,1.0728836e-06,4.172325e-06,5.698204e-05,3.5762787e-07,1.7940998e-05,7.212162e-06
0.006573409,6.854534e-07,0.0023180842,7.605553e-05,0.0008020997,0.98257893,0.014715821,0.00022652745,0.0003247559,0.00029098988
0.027354151,0.0,4.0233135e-06,0.00016126037,2.3841858e-07,2.9802322e-07,0.00014448166,4.172325e-07,0.9898318,2.4527311e-05
0.22635481,1.1920929e-07,0.00016593933,4.7385693e-06,0.0,3.093481e-05,0.0005773008,0.9206989,0.00017023087,0.002692461
0.0020562708,0.8142219,0.07458401,0.0023623705,0.00029039383,0.001298368,0.006623924,0.00045773387,0.0009754002,0.008230358
7.927418e-05,0.978624,0.00087711215,0.009318531,1.1324883e-06,0.027746439,0.0049906075,0.030165762,0.059254527,0.027671158
0.9991189,0.0,1.013279e-06,0.0,1.4901161e-07,5.364418e-07,2.655387e-05,1.1920929e-07,8.404255e-06,5.751848e-06
0.00035884976,0.0001013577,0.013074011,0.004985571,0.005132705,0.9965723,0.024913877,0.0002130866,0.01457274,0.0001320839
0.9994155,0.0,3.2782555e-07,0.0,0.0,4.7683716e-07,7.548928e-05,0.0,1.2814999e-05,8.34465e-07
0.00012812018,6.2584877e-07,0.00025489926,0.9958768,0.92427,3.322959e-05,0.0025689602,2.9802322e-08,0.22359738,8.791685e-06
0.00085797906,0.0,5.3465366e-05,0.00015240908,5.4836273e-06,2.3245811e-06,0.0002667904,8.940697e-08,0.99567044,2.321601e-05
0.9330882,1.7881393e-07,0.00020626187,4.428625e-05,0.0,3.156066e-05,0.00037500262,0.28447634,0.00014308095,0.00040385127
0.061457038,0.0,2.0086765e-05,0.0002412796,1.6391277e-06,6.2584877e-07,0.00010615587,2.9802322e-07,0.9779615,0.00013583899
0.9992925,0.0,3.5762787e-07,0.0,4.7683716e-07,5.364418e-07,3.260374e-05,0.0,5.990267e-06,1.4603138e-06
0.0016494393,0.0,0.0012303293,0.00011172891,1.1622906e-06,7.44164e-05,0.0015026927,2.554059e-05,0.9933471,0.00016108155
0.009885341,2.3543835e-06,6.303191e-05,0.9924189,0.0002747476,7.897615e-06,7.0512295e-05,2.810359e-05,0.000480026,5.6296587e-05
0.99865806,0.0,1.0669231e-05,0.0,5.9604645e-08,6.3180923e-06,5.9962273e-05,7.1525574e-07,2.2649765e-05,2.8908253e-05
0.0072540343,0.0,1.1503696e-05,3.4064054e-05,6.2584877e-07,4.172325e-07,0.00013926625,2.682209e-07,0.989586,0.00016346574
1.1265278e-05,2.0861626e-07,0.0025220215,0.00014442205,8.374453e-06,0.9997647,0.0084910095,2.9027462e-05,0.0011336803,7.033348e-06
0.9667175,0.0,1.4603138e-05,4.7385693e-06,8.85129e-06,1.0758638e-05,0.00058221817,2.9802322e-07,0.070697576,3.3676624e-05
0.002938807,0.0,0.00014838576,7.390976e-06,7.748604e-07,3.8444996e-06,0.0027299523,8.34465e-07,0.98946667,0.0006489754
0.00045117736,3.9041042e-06,0.00029033422,0.99808824,4.0352345e-05,9.775162e-06,6.0498714e-05,0.00031730533,5.3346157e-06,5.0753355e-05
0.99661684,0.0,6.0796738e-06,1.9669533e-06,5.9604645e-08,1.0669231e-05,0.00017264485,5.1259995e-06,0.000111579895,5.632639e-06
0.00047138333,1.013279e-05,4.0233135e-05,0.99911666,0.021824151,0.0013953447,0.012986213,0.00026971102,3.132224e-05,0.00016236305
0.0018662214,4.7683716e-07,4.529953e-06,0.9990226,0.0006482899,6.7949295e-06,0.00018647313,3.874302e-07,0.026284873,3.0100346e-06
0.00056910515,5.6922436e-06,9.655952e-06,0.00033390522,0.0,0.0020068288,0.8811866,0.18525535,0.0006786287,0.0011720955
0.045686185,0.0,4.529953e-06,1.1920929e-07,0.00011399388,5.9604645e-08,6.020069e-06,5.9604645e-08,0.18657544,0.83230424
0.00046110153,3.874302e-07,9.9778175e-05,0.99604344,0.14739761,1.5169382e-05,0.00034934282,8.940697e-07,0.5808923,9.453297e-05
0.290122,0.0,7.6532364e-05,0.00041547418,2.0861626e-06,8.34465e-07,0.00012239814,6.2584877e-07,0.9380467,6.720424e-05
0.0004028976,0.9194528,0.03482884,0.37012377,9.745359e-06,0.007876694,0.010118693,0.00096806884,0.95633405,0.00032377243
0.00080031157,2.3841858e-07,6.4969063e-06,0.9994859,0.005453348,5.0365925e-06,8.961558e-05,6.854534e-07,3.20971e-05,2.3245811e-06
0.12042174,0.0,2.0951033e-05,1.7881393e-07,2.5719404e-05,1.1920929e-07,2.965331e-05,1.0728836e-06,0.35269308,0.5355176
5.4210424e-05,2.9802322e-07,8.907914e-05,0.9988364,0.0043905675,5.0395727e-05,0.0011917949,6.714463e-05,7.2717667e-06,0.00010406971
2.2172928e-05,2.1755695e-06,2.2679567e-05,1.013279e-05,3.5762787e-06,0.008877158,0.9802742,1.2516975e-06,0.93549067,8.878112e-05
0.00482288,4.440546e-06,0.9895743,0.007858396,0.0034041405,0.00012859702,0.0015980899,0.00013497472,0.0003811121,0.00028398633
0.9970266,0.0,8.940697e-06,3.5762787e-07,1.1920929e-07,1.6212463e-05,6.771088e-05,1.707673e-05,0.00017905235,9.2715025e-05
0.97810733,0.0,2.604723e-05,1.7881393e-07,0.0,2.2649765e-06,0.00020101666,8.34465e-07,0.056866497,4.568696e-05
6.711483e-05,1.5795231e-06,0.0027250946,0.004182756,6.377697e-05,0.9971894,0.030685961,0.00075754523,0.00013056397,2.4318695e-05
0.0006839037,0.0,0.0,0.0,5.9604645e-08,0.0,0.0,0.0,1.4513731e-05,0.9987465
0.99888754,0.0,2.2649765e-06,0.0,0.0,6.854534e-07,3.6478043e-05,6.2584877e-07,1.5944242e-05,4.142523e-06
0.0014302433,0.0,2.2470951e-05,0.00030356646,1.4901161e-07,4.172325e-07,0.00012117624,1.7881393e-07,0.99480855,1.9311905e-05
0.9734187,0.0,0.00043562055,8.940697e-07,3.0994415e-06,5.13196e-05,0.00020876527,1.6540289e-05,0.011732519,0.0059355795
0.9868717,0.0,1.5318394e-05,0.00013488531,2.9802322e-07,4.2676926e-05,0.00018793344,7.897615e-06,0.007782668,1.347065e-05
0.00041639805,2.0861626e-06,9.536743e-07,1.5497208e-05,3.874302e-06,0.0005341172,0.99844587,2.3245811e-06,0.00024747849,0.00030571222
0.3181631,4.1127205e-06,0.9565773,0.0004953146,7.933378e-05,0.00025814772,0.0007788837,0.001129359,0.0007454157,0.0019864738
0.9944781,0.0,0.0004145801,5.990267e-06,2.0861626e-07,0.00030818582,8.0525875e-05,0.00095430017,0.00020870566,0.0008443892
0.0026173294,0.0,1.1622906e-06,2.9802322e-08,0.000564903,0.0,7.748604e-07,0.0,0.00027740002,0.99041235
0.00038272142,0.97706455,0.0025302768,0.0021018684,4.5090914e-05,0.006028533,0.011625797,0.00022795796,0.7010232,0.01254189
0.995513,0.0,1.9311905e-05,2.3841858e-07,1.6093254e-05,1.66893e-05,7.554889e-05,2.682209e-06,0.000110566616,0.00036349893
0.0004220307,9.983778e-06,0.0003924966,0.99100953,0.14038965,2.631545e-05,0.001796931,0.0,0.9558129,5.5134296e-06
0.62587357,2.3841858e-07,0.8113756,1.475215e-05,4.917383e-06,0.00025931,0.012719452,0.0013270974,0.009500772,0.0072807074
0.44425654,2.9802322e-08,9.697676e-05,6.315112e-05,2.2947788e-06,1.1712313e-05,0.0003954172,6.070733e-05,0.8435242,0.0022660792
0.00015234947,0.0013024509,0.84471357,0.5468989,0.00026908517,0.0005250573,0.0017957091,1.2606382e-05,0.982988,1.4334917e-05
0.9084075,2.6524067e-06,0.040494084,0.0006079972,1.1920929e-07,0.00038024783,0.00038313866,0.07631305,0.002240628,0.012012333
0.0007032752,8.940697e-08,0.85193497,0.00029674172,3.3140182e-05,0.002577722,0.025395423,6.0796738e-06,0.9663251,4.696846e-05
0.99802196,0.0,1.9073486e-06,8.940697e-08,8.404255e-06,5.5134296e-06,5.2899122e-05,0.0,0.00010305643,5.6922436e-06
7.4863434e-05,6.943941e-05,0.00018146634,0.9056084,4.3809414e-06,5.6117773e-05,0.023035467,0.00011777878,0.9630884,6.735325e-06
4.929304e-05,1.463294e-05,0.00010821223,0.99833244,2.682209e-07,8.285046e-06,0.00012165308,0.00080761313,5.543232e-06,4.6759844e-05
0.0014415085,0.0,8.374453e-06,5.6535006e-05,2.3245811e-06,3.2782555e-07,0.00034680963,0.0,0.9955648,9.447336e-06
1.8775463e-05,0.78191304,0.2829479,0.99564517,0.51760453,0.63263583,0.15895176,0.00069803,0.19328108,3.2633543e-05
0.9980738,0.0,1.9520521e-05,9.834766e-07,2.9802322e-08,6.6906214e-05,7.009506e-05,4.1157007e-05,5.0336123e-05,2.6583672e-05
0.0004940331,0.9681098,0.002350092,0.0012732148,1.680851e-05,0.0027418435,0.008100867,0.0008021593,0.7191323,0.025621146
0.99929905,0.0,2.682209e-07,0.0,1.4901161e-07,9.23872e-07,2.5749207e-05,0.0,9.62615e-06,1.4603138e-06
0.0030845404,0.0,6.0647726e-05,0.0003554523,1.1920929e-07,1.0788441e-05,0.00019779801,4.2021275e-06,0.9908196,1.9043684e-05
0.017456144,4.23193e-06,0.00033682585,0.0003529191,1.4901161e-07,1.8328428e-05,0.00029322505,0.00024732947,0.9746479,0.0005571544
0.00032013655,0.9350125,0.13450626,0.9086505,9.0777874e-05,0.017103434,0.012686908,0.0018807352,0.14941213,0.0001616776
0.98060596,0.0,9.4771385e-06,1.5735626e-05,1.1920929e-07,9.417534e-06,0.00026202202,3.695488e-06,0.024722189,3.552437e-05
8.881092e-06,1.0222197e-05,0.0003952682,0.019892782,0.0048812926,0.9998419,0.012273401,8.812547e-05,0.00019299984,1.7434359e-05
0.9945481,0.0,2.7686357e-05,6.765127e-06,2.9802322e-08,2.9623508e-05,7.477403e-05,0.00089749694,0.00012999773,0.00038570166
0.00084093213,4.0233135e-06,1.7285347e-06,0.0007162988,0.0,7.6293945e-06,0.00013056397,0.061202228,0.9925587,0.00020676851
0.00014212728,0.98739475,0.0008894205,0.004093677,1.7881393e-07,0.0015258491,0.001996547,0.0006735623,0.89195824,0.004227698
0.9979973,0.0,6.0528517e-05,1.1920929e-07,1.1920929e-07,6.181002e-05,0.000102728605,5.352497e-05,3.9100647e-05,0.00011700392
0.00085937977,3.8146973e-06,0.01289624,3.0517578e-05,1.4275312e-05,0.9740977,0.20660755,0.0001192987,0.37677747,0.0020086467
0.00088489056,0.0,2.1725893e-05,0.00010514259,8.6426735e-07,7.748604e-07,0.0008818507,8.940697e-08,0.99742484,6.28829e-06
0.004869491,0.6168289,0.0480161,0.062776595,0.013614625,0.02124545,0.22768208,0.008147299,0.23429653,0.037002385
4.3213367e-05,0.0068018436,0.008098841,0.11575529,0.29376456,0.99739605,0.0093919635,7.775426e-05,0.00022447109,8.907914e-05
0.0010235608,0.0,1.7881393e-07,0.0,0.0,0.0,0.0,2.9802322e-08,0.0008125007,0.9967668
0.5781876,1.9967556e-06,0.00057947636,0.38096413,3.7044287e-05,7.343292e-05,0.00046637654,3.46303e-05,0.5795411,4.553795e-05
0.0006875098,0.0,1.4066696e-05,1.3023615e-05,0.0,4.6491623e-06,0.00016483665,3.5762787e-07,0.99580806,1.0281801e-05
0.0009178519,0.0,9.7066164e-05,1.1265278e-05,2.9802322e-08,1.296401e-05,0.00075513124,7.1525574e-07,0.99693793,4.9471855e-06
0.0003657937,0.0,4.172325e-07,0.99801373,4.172325e-07,3.0696392e-06,0.00012776256,1.1026859e-06,1.0162592e-05,2.9802322e-08
0.0004914999,6.186962e-05,0.014406025,0.00038942695,0.000782907,0.99687463,0.015420318,0.00023406744,0.48484007,0.000610888
0.0007559359,3.5464764e-06,0.9966643,0.0004568696,0.0019863546,0.00011730194,0.0011285543,1.6659498e-05,0.023398668,2.3573637e-05
0.9801763,4.4703484e-07,0.0008265674,0.0001141727,5.9604645e-08,0.00025480986,0.00032007694,0.013249934,0.0030683875,0.0021840334
6.917119e-05,0.00020042062,6.914139e-06,0.0019781291,4.6372414e-05,0.0037889183,0.9926547,2.9057264e-05,0.00026345253,0.001442045
0.9991329,0.0,5.9604645e-07,0.0,1.1920929e-07,1.0728836e-06,5.7041645e-05,0.0,1.6838312e-05,1.2516975e-06
0.0007402003,8.6426735e-07,3.3676624e-06,0.9994329,2.7269125e-05,5.2452087e-06,0.00015118718,4.082918e-06,0.0006738901,4.053116e-06
0.00093600154,4.7683716e-07,4.082918e-06,3.5762787e-07,3.3676624e-06,0.0016717017,0.9827399,1.4007092e-06,0.0028903484,0.01086691
0.0001937151,0.0,8.404255e-06,6.347895e-05,1.1920929e-07,2.0861626e-07,0.00033172965,0.0,0.99858654,1.3709068e-06
0.015209734,0.0,5.438924e-05,0.00016847253,3.0994415e-06,1.5199184e-06,0.0004593432,8.940697e-07,0.98626995,0.00030776858
0.00036609173,0.5625595,0.46519494,0.8217428,0.00059491396,0.008636922,0.027658641,0.00035989285,0.96099293,7.367134e-05
0.99875456,0.0,1.937151e-06,0.0,8.940697e-08,1.4901161e-06,5.352497e-05,2.3841858e-07,2.1755695e-05,8.702278e-06
0.9976096,0.0,1.2099743e-05,2.682209e-07,8.940697e-08,5.3167343e-05,0.00046122074,1.2516975e-06,0.000110417604,2.413988e-06
0.9981031,0.0,8.7320805e-06,0.0,3.5762787e-07,1.731515e-05,3.3974648e-05,1.66893e-06,5.7041645e-05,0.00012817979
0.00044420362,0.0,8.7976456e-05,0.000121831894,0.0011348128,1.2367964e-05,0.0022082627,0.0,0.99528545,7.522106e-05
0.6970826,0.0,0.00020134449,0.00012174249,1.8775463e-06,8.46386e-06,0.00040751696,3.3080578e-06,0.7533132,0.0003209412
0.0004594028,8.34465e-07,7.468462e-05,6.9737434e-06,0.0,3.2484531e-06,3.132224e-05,0.99375737,0.00045779347,0.0003412068
0.998734,0.0,1.2218952e-06,0.0,1.7881393e-07,2.2351742e-06,3.322959e-05,1.1920929e-07,3.361702e-05,6.1690807e-06
0.0001822114,0.001822561,0.7300908,0.097972155,0.016456336,0.9550619,0.016808271,0.0022490025,0.7328636,0.00015309453
0.23112005,0.0,6.4730644e-05,0.0016292632,4.6491623e-06,6.824732e-06,0.0002681315,7.3611736e-06,0.8984581,0.000119417906
0.6124641,4.9442053e-05,0.61105627,0.0016424656,6.9737434e-05,0.0022746623,0.01711756,0.0125668645,0.022847593,0.051409543
0.0029483438,0.0,0.0005800426,5.0127506e-05,2.5510788e-05,3.1024218e-05,0.0013215244,1.3113022e-06,0.98948085,0.00031262636
0.0009765923,0.0,1.7404556e-05,0.0002962947,2.026558e-06,5.364418e-07,0.00016844273,8.940697e-08,0.9956312,2.3007393e-05
0.001819253,1.9967556e-06,3.3676624e-06,8.8989735e-05,0.00022643805,0.0022465289,0.9893884,2.297759e-05,1.1652708e-05,0.00040465593
0.0631955,0.0,7.778406e-06,1.9580126e-05,2.9802322e-08,2.9802322e-07,0.00013968349,2.0861626e-06,0.9713429,0.00029870868
0.9977013,0.0,6.0796738e-06,1.4901161e-07,4.4107437e-06,1.168251e-05,3.2395124e-05,5.9604645e-07,4.3958426e-05,3.6746264e-05
0.99785656,0.0,8.583069e-06,8.940697e-08,2.6524067e-06,1.5079975e-05,8.881092e-05,1.2814999e-06,2.732873e-05,3.555417e-05
0.002450496,8.940697e-08,4.4882298e-05,1.3411045e-06,0.0,1.2516975e-06,2.9802322e-05,0.99205637,1.4990568e-05,0.00044766068
0.001401931,1.1920929e-07,0.0011112988,0.0007327497,0.00027769804,0.9980376,0.008865595,0.0010065138,2.5629997e-05,3.1352043e-05
0.05302587,0.0,3.889203e-05,5.364418e-07,2.9802322e-08,1.1116266e-05,0.002076745,3.2484531e-06,0.9610767,7.4237585e-05
0.008794874,0.0,0.0007415414,0.00016054511,9.745359e-06,6.854534e-06,0.0010523498,8.6426735e-07,0.9845135,0.00035333633
0.0002411902,7.516146e-05,0.96672726,0.04736951,0.03927514,0.002963096,0.012689561,1.0192394e-05,0.9744601,5.1796436e-05
8.2433224e-05,2.142787e-05,1.0818243e-05,0.9975772,0.000112921,3.248453e-05,0.020970225,1.0728836e-06,0.25297794,8.940697e-08
3.1113625e-05,0.0,0.0,0.0,0.0,0.0,0.0,0.0,5.1766634e-05,0.99964213
0.15181005,6.556511e-06,0.6606239,0.00129354,0.002127558,0.0013973117,0.074415386,0.0010475814,0.63940805,0.047436178
0.76697624,8.940697e-08,7.3611736e-05,3.8713217e-05,0.00032669306,0.00010305643,0.0010451078,7.2956085e-05,0.1052092,0.04161632
0.99819136,0.0,2.2649765e-05,2.9802322e-08,1.7881393e-07,1.4215708e-05,5.26309e-05,5.722046e-06,1.8447638e-05,4.4822693e-05
0.9958923,0.0,4.87864e-05,5.722046e-06,5.9604645e-08,6.598234e-05,0.00013026595,9.325147e-05,9.6946955e-05,1.9878149e-05
0.0004451871,0.9348973,0.0058995187,0.00041556358,0.00055110455,0.0054889023,0.038123667,0.00011125207,0.35777146,0.007350445
0.0006069839,0.0,2.682209e-07,0.0,4.7683716e-07,0.0,8.940697e-08,0.0,0.00043657422,0.99718475
9.10759e-05,7.56979e-06,0.98825943,0.028479517,0.011973321,0.0054433346,0.025608122,2.771616e-06,0.9832934,7.122755e-06
0.97612536,2.0861626e-07,0.111107856,8.255243e-06,5.066395e-07,0.00055614114,0.00095030665,0.00016975403,0.0005504787,9.5665455e-05
0.00011688471,0.14112547,0.108718455,0.99308896,0.0002168715,0.002991885,0.006334245,0.00012847781,0.82237214,2.2500753e-05
0.00011667609,0.97467923,0.0066498816,0.00015702844,7.9363585e-05,0.0014517605,0.0031907856,0.00014582276,0.007671565,0.0077926815
0.0016793311,0.0,0.00014823675,1.0609627e-05,2.682209e-07,9.030104e-06,0.0017983913,1.5497208e-06,0.99485326,5.6654215e-05
0.0004120171,4.684925e-05,0.9927659,0.014562607,0.0009114742,0.27283925,0.0023784041,7.945299e-05,0.3420773,3.3974648e-06
0.11769521,2.3841858e-07,1.2814999e-05,0.00068962574,0.0,4.082918e-06,8.609891e-05,0.0036602318,0.84093904,0.00023365021
0.97721565,1.1920929e-07,3.9964914e-05,1.2516975e-06,0.0,9.4771385e-06,0.00022158027,0.09566805,6.347895e-05,0.00010564923
0.997488,0.0,3.5375357e-05,5.9604645e-08,0.0,5.3346157e-06,0.00030308962,0.0007008314,2.3245811e-06,7.95722e-06
0.0001797378,5.954504e-05,0.06415051,0.0011722147,0.0015085638,0.9989313,0.016501367,0.00012215972,0.84891665,0.00018015504
0.0020064712,0.0,9.953976e-06,0.00027000904,2.9802322e-08,3.2782555e-06,0.00016373396,7.2717667e-06,0.99512553,9.655952e-06
0.15385294,2.9802322e-08,0.00016969442,0.00042536855,5.662441e-07,8.493662e-06,0.0007201135,0.0011318922,0.9122515,0.0071017146
0.043889463,0.0,0.00022345781,0.000105291605,1.9967556e-06,2.2351742e-06,0.0003812909,5.364418e-07,0.9687357,0.00025868416
2.9474497e-05,9.098649e-05,0.0387128,0.0001680553,0.0003877282,0.999248,0.012716204,1.79708e-05,0.49884492,0.00018692017
1.8626451e-05,0.0002901256,0.00037106872,0.01801899,0.00014030933,0.58827084,0.5880976,0.000107735395,0.00012719631,0.0026249588
0.98753583,2.0861626e-07,0.00017255545,6.8843365e-06,1.1920929e-07,4.553795e-05,7.930398e-05,0.0013257265,0.001521647,0.0071823
0.0011205971,6.854534e-07,0.00022754073,3.2484531e-06,0.0,7.599592e-06,0.0001090467,0.987401,0.0006175637,0.005426228
0.0011331439,1.4901161e-07,2.464652e-05,8.4757805e-05,0.9977746,3.5762787e-07,0.009106934,0.0,0.022359252,0.0003119409
8.5771084e-05,0.009507924,0.05304852,0.0011052489,0.0013396144,0.846125,0.22087154,0.0005777478,0.21034971,0.01506412
0.9943001,0.0,1.3113022e-06,2.0861626e-07,3.5762787e-07,1.7881393e-06,8.9138746e-05,5.9604645e-08,0.0015391707,1.2636185e-05
0.00018256903,9.5665455e-06,6.0498714e-06,0.99958986,1.898408e-05,1.1205673e-05,0.00035011768,1.13248825e-05,0.39835227,2.0593405e-05
0.0074635446,0.0,0.002688706,0.00019738078,0.0026997328,4.4226646e-05,0.0011802912,6.2584877e-07,0.9784374,0.00039753318
0.011257231,5.155802e-06,0.9830692,0.003014326,0.0019798577,0.0005078018,0.026907682,0.00043544173,0.07876158,0.000570029
0.00037667155,3.1888485e-06,7.867813e-06,0.0004646182,9.834766e-07,0.0017949939,0.9944361,0.00016775727,0.0011640787,0.0009191036
0.9808085,0.0,6.201863e-05,6.854534e-07,2.7120113e-06,2.7656555e-05,0.00039601326,6.854534e-07,0.016616493,0.00013512373
6.181002e-05,3.9041042e-05,0.00018247962,0.00033327937,6.636977e-05,0.7017145,0.65955955,0.0004144311,0.031808525,0.052541614
0.0012807548,2.3841858e-07,0.0072024167,0.0009927452,5.671382e-05,0.9959198,0.03754157,0.0022609532,0.0006072223,0.00010660291
0.99699724,0.0,1.7940998e-05,1.1026859e-06,9.23872e-07,3.9964914e-05,4.3541193e-05,4.1127205e-06,7.805228e-05,6.455183e-05
0.29890442,0.0,0.019420087,3.299117e-05,2.2828579e-05,3.8832426e-05,0.0013109744,0.0008634627,0.32386225,0.42338836
7.57575e-05,4.0471554e-05,0.021909028,0.0020144582,0.00029465556,0.9976605,0.039362878,0.0007970333,0.107696354,0.00049489737
0.99841315,0.0,2.7418137e-06,2.9802322e-08,0.0,2.0563602e-06,6.493926e-05,8.6426735e-07,2.5063753e-05,4.6789646e-06
4.798174e-06,0.00037318468,0.98199046,0.9757249,0.0098540485,0.00018391013,0.00048452616,6.4074993e-06,0.017243773,2.0563602e-06
0.100699276,0.0,1.9818544e-05,7.978082e-05,1.7881393e-07,4.172325e-07,0.00010916591,1.013279e-06,0.96829087,0.00016874075
0.035716265,5.9604645e-07,0.00016632676,1.2814999e-05,0.0,3.2782555e-06,3.9309263e-05,0.94906664,2.7179718e-05,0.00092053413
0.0040634274,1.2516975e-06,4.1514635e-05,3.9041042e-06,0.0,1.7464161e-05,0.0011055171,0.98264277,0.005344093,0.031285375
0.22836751,0.0,0.00035369396,7.292628e-05,2.3841858e-07,2.130866e-05,0.0024385452,1.809001e-05,0.93254423,9.5039606e-05
0.99514544,2.9802322e-08,0.0001553297,6.2584877e-07,5.9604645e-08,7.683039e-05,0.00010976195,4.2766333e-05,0.00036367774,0.00025761127
0.90138376,0.0,0.0007568896,9.23872e-07,6.1661005e-05,1.8179417e-05,0.0002182126,9.506941e-06,0.0005327761,0.12812364
0.0043469667,0.0,4.953146e-05,0.0001013577,0.9996834,2.4735928e-06,0.0017863214,0.0,0.0006930232,9.2983246e-05
0.9989792,0.0,2.0861626e-06,0.0,1.1920929e-07,7.1525574e-07,2.9742718e-05,5.662441e-07,5.6922436e-06,6.0796738e-06
0.034990937,0.0065716207,0.009769529,0.01770851,0.0013873875,0.0015993118,0.2004337,0.00036147237,0.7332356,0.006474048
0.9969268,0.0,2.115965e-06,1.7881393e-07,1.1920929e-07,3.7550926e-06,0.00010076165,8.940697e-08,0.0008895993,2.8908253e-06
0.0008203685,0.0,1.3142824e-05,3.9041042e-06,3.606081e-05,2.2947788e-06,0.0018053651,2.9802322e-08,0.99280536,0.0007227957
1.9073486e-06,0.9385934,0.0052566826,0.99664974,4.798174e-06,0.0037737787,0.030076176,1.4424324e-05,0.96589375,1.4007092e-06
0.99910897,0.0,7.5101852e-06,0.0,0.0,3.1590462e-06,0.00011113286,1.6987324e-06,6.7949295e-06,1.9669533e-06
0.99722874,0.0,0.000103622675,0.0,2.3841858e-07,9.5665455e-06,3.927946e-05,7.158518e-05,2.8818846e-05,0.0020664036
0.9984499,0.0,2.95043e-06,1.7881393e-07,5.9604645e-08,4.6491623e-06,0.0001835823,1.4007092e-06,2.8073788e-05,8.046627e-07
0.9959682,0.0,1.7464161e-05,4.4703484e-07,2.026558e-06,3.066659e-05,6.9350004e-05,7.748604e-07,0.0005634427,0.00010624528
0.7163648,0.0,6.711483e-05,2.503395e-06,2.3573637e-05,9.000301e-06,0.0015802085,1.013279e-06,0.33278435,0.002546221
0.9936478,2.9802322e-08,0.00026082993,9.834766e-07,4.142523e-06,0.00023832917,0.0007574558,1.6152859e-05,0.00041809678,0.00021183491
0.99783635,0.0,1.54078e-05,2.9802322e-08,0.0,5.3167343e-05,0.00014868379,3.963709e-06,0.00014537573,2.3245811e-05
4.428625e-05,0.0,0.0,0.0,8.940697e-08,0.0,0.0,0.0,6.2316656e-05,0.99955297
4.428625e-05,0.0,0.0,0.0,8.940697e-08,0.0,0.0,0.0,6.2316656e-05,0.99955297
3.144145e-05,0.9851719,0.05401224,0.33464217,0.0068149865,0.085338295,0.03353092,0.0002491176,0.0026886761,0.00099653
0.00014385581,0.97670996,0.006622225,0.00020760298,0.00019210577,0.0029117763,0.0025105774,4.428625e-05,0.013248146,0.0032422245
0.0041252077,1.3709068e-06,0.0074860156,0.0010149777,0.997469,1.40070915e-05,0.005807489,0.0,0.7926264,0.00026100874
0.99808896,0.0,1.5199184e-05,5.9604645e-08,5.9604645e-08,7.897615e-06,8.4877014e-05,9.953976e-06,1.7434359e-05,1.1831522e-05
0.00026118755,1.4901161e-07,0.00025367737,2.7865171e-05,1.1026859e-06,0.0006158948,0.6999252,2.771616e-06,0.98004913,7.498264e-05
0.99756867,0.0,1.6063452e-05,1.1324883e-06,8.940697e-08,4.300475e-05,0.00021255016,6.765127e-06,7.903576e-05,4.1127205e-06
0.00033590198,8.34465e-07,5.1885843e-05,0.9983437,0.00035890937,4.0382147e-05,8.225441e-05,0.00071659684,6.9618225e-05,0.0001732707
0.0003055334,8.612871e-06,0.90729827,0.033074915,0.28499085,0.003767848,0.0092116,1.013279e-06,0.9862808,6.3985586e-05
0.012491316,0.0,0.03820476,7.8082085e-06,0.0028353631,1.847744e-06,5.0634146e-05,2.6762486e-05,0.0036691725,0.94855654
4.428625e-05,0.0,0.0,0.0,8.940697e-08,0.0,0.0,0.0,6.2316656e-05,0.99955297
0.00068715215,6.556511e-07,1.2367964e-05,0.99927694,7.2717667e-06,4.887581e-06,0.0001270473,5.093217e-05,8.6426735e-07,5.3048134e-06
0.9971923,0.0,3.296137e-05,4.7683716e-07,5.9604645e-08,2.2798777e-05,9.831786e-05,3.9994717e-05,1.9848347e-05,2.9861927e-05
0.12909332,1.4901161e-07,4.851818e-05,0.0011784136,3.5762787e-07,4.798174e-06,0.00030979514,5.1110983e-05,0.9659095,0.00022602081
0.99829286,0.0,1.1622906e-06,0.0,4.7683716e-07,6.2584877e-07,0.00022569299,2.9802322e-08,1.0430813e-05,7.4505806e-06
0.9981297,0.0,6.4074993e-06,4.7683716e-07,2.9802322e-07,4.0978193e-05,5.081296e-05,1.6391277e-06,8.133054e-05,2.0325184e-05
0.011151522,1.9967556e-06,5.4836273e-06,1.1026859e-06,7.778406e-06,0.00032922626,0.9904455,1.1563301e-05,0.00092199445,0.0006709993
0.19736734,2.8312206e-06,0.00017526746,0.6750214,0.078747034,0.00013315678,0.0006739795,9.247661e-05,0.49373516,0.0074881017
0.00179708,5.9604645e-08,1.7613173e-05,1.1563301e-05,3.4570694e-06,1.463294e-05,0.03475505,1.7881393e-07,0.99120045,8.6158514e-05
0.9930391,2.9802322e-08,0.00011071563,4.965067e-05,1.4901161e-07,0.00017094612,6.765127e-05,0.00041043758,0.00025740266,0.00029239058
3.0070543e-05,0.017605335,0.008798003,0.99853987,7.8082085e-06,0.0030899346,0.0011052489,0.0001539886,0.61488134,2.0563602e-06
9.030104e-06,0.020742416,1.0728836e-05,0.97718203,0.000728637,6.3568354e-05,0.25430477,2.3841858e-07,0.95809996,1.1622906e-06
8.672476e-06,0.015772045,0.96646035,0.99083436,0.021506876,0.0022311509,0.0016743839,0.00010544062,0.0003450811,2.0563602e-06
0.9911057,0.0,0.00090926886,1.1920929e-06,1.2218952e-06,0.00012558699,0.00026091933,9.596348e-06,0.00050738454,8.85725e-05
0.005504906,0.0,4.145503e-05,6.3568354e-05,1.7881393e-07,6.2584877e-07,0.00018954277,1.1920929e-07,0.98908365,3.0994415e-05
0.0069729686,7.492304e-05,1.7791986e-05,0.00029620528,1.1265278e-05,7.0244074e-05,0.047259837,8.016825e-06,0.9575058,0.0015532672
0.020596892,0.0,3.8594007e-05,0.00026732683,9.775162e-06,5.6922436e-06,0.00048726797,3.2484531e-06,0.9833076,0.0002734363
0.9984137,0.0,2.6524067e-06,0.0,1.4603138e-06,4.0233135e-06,3.8534403e-05,1.1920929e-07,2.1487474e-05,1.2427568e-05
9.357929e-06,0.010042697,3.71933e-05,0.99448353,5.2571297e-05,0.00011456013,0.0034333766,4.4703484e-07,0.90666246,2.503395e-06
0.0002707839,0.1355134,0.3872336,0.12095791,0.018091291,0.010876298,0.31543002,1.7374754e-05,0.9527923,3.5852194e-05
0.85273814,0.0,3.2812357e-05,1.2814999e-05,5.9604645e-07,1.9967556e-06,0.00016206503,1.4901161e-06,0.565895,0.00025042892
0.9990233,0.0,2.9802322e-07,0.0,1.1920929e-07,5.364418e-07,3.066659e-05,0.0,8.821487e-06,1.7881393e-06
0.00027108192,3.1888485e-06,6.189942e-05,0.99889016,0.0022458434,1.707673e-05,0.00059357285,6.556511e-07,0.39358607,3.427267e-06
1.49309635e-05,0.00069504976,0.2306779,0.99480027,0.102315366,0.0007426739,0.011334479,8.34465e-05,0.029601961,0.00023031235
9.36985e-05,0.98435974,0.0044342875,0.00034737587,0.0012684166,0.005055517,0.01708448,3.9577484e-05,0.0041097105,0.006587833
0.0009101927,0.0,0.00015458465,1.5974045e-05,0.0,1.1026859e-06,0.00010052323,5.066395e-07,0.9956714,8.940697e-07
0.0011896789,0.12273899,0.0029983222,0.003442824,0.0001488328,0.027792573,0.4190219,0.0001359582,0.8190701,0.009480387
0.0001989305,0.9678441,0.0106114745,8.028746e-05,0.00034496188,0.0023848116,0.0019216537,0.00022861362,0.007079184,0.014282316
0.997072,0.0,6.467104e-06,8.940697e-07,2.9802322e-07,2.30968e-05,0.00013142824,1.3113022e-06,0.00022754073,6.109476e-06
4.428625e-05,0.0,0.0,0.0,8.940697e-08,0.0,0.0,0.0,6.2316656e-05,0.99955297
0.0072824955,0.0,1.1026859e-06,0.0,3.2007694e-05,0.0,2.0861626e-07,0.0,0.0007568896,0.9877899
0.021120012,0.0,1.1563301e-05,1.3917685e-05,0.0,2.9802322e-07,0.00020968914,2.6226044e-06,0.99048686,1.6480684e-05
0.00010114908,0.0,0.0,0.0,1.1920929e-07,0.0,0.0,0.0,0.00010251999,0.99916005
0.9990792,0.0,4.7683716e-07,0.0,0.0,6.854534e-07,0.00013715029,2.9802322e-08,1.3738871e-05,6.854534e-07
0.99865866,0.0,2.115965e-06,0.0,8.046627e-07,8.34465e-07,4.3451786e-05,8.940697e-08,5.6624413e-06,9.655952e-06
0.0014874339,0.0,1.3709068e-05,0.0007881224,1.4305115e-06,6.2584877e-07,0.0001578927,1.4901161e-07,0.99478245,4.5776367e-05
0.00013902783,0.9270407,0.0080397725,1.3738871e-05,0.00061932206,0.00045016408,0.0019314289,1.5854836e-05,0.0073928237,0.009274274
0.026040435,0.0,3.9875507e-05,0.0007905364,4.172325e-07,1.3113022e-06,0.00027352571,2.2947788e-06,0.98574877,2.6851892e-05
0.00011447072,0.04167092,0.09978095,0.029326797,0.064838916,0.9870983,0.07146469,0.0010226071,0.6075948,0.0026850998
5.2034855e-05,9.289384e-05,0.02143699,0.0018836856,0.0010970831,0.99935454,0.0064460337,0.00014007092,0.17428717,0.00011715293
0.010792315,0.0,2.7060509e-05,0.0003286898,7.212162e-06,7.748604e-07,0.00021314621,1.4901161e-07,0.98835313,0.00010377169
0.9714326,4.2021275e-06,0.0019480586,7.122755e-06,3.194809e-05,0.00012665987,0.00019702315,0.0002900362,0.0026203096,0.012015432
0.012581825,3.8444996e-06,0.9931307,0.0025258064,0.00093981624,0.00014257431,0.00063610077,0.00013455749,0.00022783875,0.00018012524
0.9979501,0.0,2.1785498e-05,0.0,0.0,3.027916e-05,0.00018307567,2.1755695e-06,0.00018367171,3.0577183e-05
0.74795187,6.2584877e-07,3.1739473e-05,0.00039744377,0.0,1.013279e-05,0.00014799833,0.00701952,0.17447123,0.003738612
7.763505e-05,0.97551763,0.001293838,0.00356704,9.417534e-06,0.0074818134,0.0065908134,0.00016406178,0.9170473,0.0047570765
0.00022947788,2.9802322e-07,4.3809414e-06,0.99986637,0.00031486154,5.930662e-06,6.0737133e-05,1.2218952e-06,0.00017276406,6.854534e-07
0.0002555251,0.81634796,0.11288589,0.81019866,4.7296286e-05,0.006493151,0.015278637,0.00015068054,0.9794302,5.686283e-05
0.9988456,0.0,2.115965e-06,0.0,2.9802322e-07,1.847744e-06,3.5077333e-05,0.0,9.596348e-06,1.1205673e-05
0.035308003,5.9604645e-08,0.009284645,5.066395e-06,5.066395e-06,0.9124214,0.11346528,0.00014624,0.009796619,0.0015638769
0.99783576,0.0,1.3023615e-05,2.3841858e-07,3.5762787e-07,1.04010105e-05,3.543496e-05,6.2286854e-06,5.4091215e-05,4.4584274e-05
3.296137e-05,7.992983e-05,0.009107858,0.0012579262,0.0007224679,0.9957605,0.013247728,0.00011900067,0.9084202,0.00023719668
0.00047269464,4.7683716e-07,8.523464e-06,0.99928975,0.006146878,3.6150217e-05,0.00034552813,1.3113022e-06,0.0003438592,2.3245811e-06
5.841255e-06,0.9541389,0.012064278,0.99387217,3.4570694e-06,0.01039952,0.014564097,0.00014173985,0.8112109,4.529953e-06
0.0010097027,6.854534e-07,0.0015047491,0.00036096573,0.000467211,0.99850583,0.014030218,0.0001385808,0.0009163618,4.813075e-05
0.079505086,0.0,6.377697e-06,0.00028592348,1.1920929e-07,2.9802322e-07,9.825826e-05,8.046627e-07,0.9691223,1.4722347e-05
0.12811229,0.0,3.2484531e-06,3.0696392e-06,2.9802322e-08,1.1920929e-07,4.9322844e-05,2.9802322e-07,0.95556766,0.00013461709
0.010338366,0.0,0.0006418228,0.007183999,0.008445382,2.7745962e-05,0.0012525618,2.3841858e-07,0.98975897,2.1576881e-05
0.0025146306,1.1920929e-07,0.0027464628,0.00024217367,2.9802322e-06,5.2660704e-05,0.0005720556,1.3113022e-05,0.9912776,0.000106841326
0.99509037,0.0,3.2931566e-05,1.7881393e-07,0.0,1.7762184e-05,0.0002437532,2.2381544e-05,0.00026598573,9.018183e-05
0.9320214,6.854534e-06,0.0029797852,8.59797e-05,0.004648447,0.3007694,0.0025359392,0.00021833181,0.0003080666,0.0002438426
0.18603271,1.1891127e-05,0.0010049343,5.2571297e-05,0.0,1.8268824e-05,9.906292e-05,0.778907,0.0017153919,0.01820609
0.998687,0.0,1.1026859e-06,0.0,5.6922436e-06,1.1026859e-06,1.3947487e-05,8.940697e-08,1.2874603e-05,1.9073486e-05
0.002221644,0.0,0.012150764,6.824732e-05,7.4207783e-06,1.6242266e-05,0.008917451,2.3841858e-07,0.9854957,4.351139e-05
7.340312e-05,0.99110955,0.00070124865,0.004306674,2.6524067e-06,0.0044094324,0.00736472,0.00030493736,0.81207895,0.010038704
0.00028073788,3.1381845e-05,0.98773813,0.46488693,0.8461524,0.00023818016,0.0017786324,4.798174e-06,0.0021184683,5.1259995e-05
6.136298e-05,0.9868163,0.006363809,0.004124373,9.575486e-05,0.0043736994,0.010237575,6.1541796e-05,0.0049473643,0.0012183189
0.99883306,0.0,1.1324883e-06,0.0,0.0,7.95722e-06,9.021163e-05,1.4901161e-07,5.8233738e-05,1.4603138e-06
0.0006646514,6.2584877e-07,0.001442343,0.00011947751,1.5258789e-05,6.642938e-05,0.011188149,2.0563602e-06,0.99204874,0.0005968511
0.007868618,0.0,5.364418e-07,0.0,0.0,2.9802322e-08,0.0003414452,0.0,0.990725,2.7954578e-05
0.00061029196,6.2584877e-07,1.0728836e-06,8.34465e-07,2.2649765e-06,0.0001899004,0.99730897,1.9669533e-06,0.00026863813,0.00057742
0.016744643,0.0,2.4735928e-05,0.0010729432,2.0861626e-06,2.3841858e-06,0.00023004413,1.8179417e-06,0.98465097,4.7028065e-05
0.0348233,0.0,0.07913509,1.3709068e-06,1.0967255e-05,7.1525574e-06,0.0004554987,0.00087970495,0.10605216,0.7142216
0.9980662,0.0,1.1891127e-05,2.0861626e-07,8.940697e-08,8.702278e-06,7.4476004e-05,5.2452087e-06,2.4795532e-05,6.645918e-06
0.9317896,0.0,0.000780195,5.9604645e-08,0.00061509013,9.775162e-06,9.7453594e-05,9.23872e-07,0.002243936,0.25494412
0.002094686,4.7683716e-07,0.9911952,3.990531e-05,0.0053830147,2.759695e-05,0.0026002228,7.8082085e-06,0.00052294135,4.6044588e-05
0.00013425946,0.037362874,0.00022694468,0.9993902,0.020884633,0.008708358,0.7119526,0.0015173554,0.00011345744,0.00025463104
0.9983001,0.0,6.3180923e-06,0.0,0.0,6.0796738e-06,2.7924776e-05,2.8014183e-06,1.6719103e-05,1.4215708e-05
0.83417535,2.0861626e-07,0.028680325,6.556511e-07,4.8577785e-06,6.735325e-06,0.00025495887,0.00065645576,0.0117435455,0.24385503
0.00013104081,5.054474e-05,0.005458623,0.005731404,0.004049778,0.99915695,0.017821282,0.00014036894,0.00052687526,6.210804e-05
0.15467733,4.172325e-07,0.00033959746,5.3048134e-06,0.010292262,3.0994415e-06,0.0003594756,4.7385693e-06,9.533763e-05,0.8608686
1.1026859e-05,0.90964776,0.010417938,0.050973058,0.018810868,0.9239558,0.014693797,9.095669e-05,0.092740774,0.0010876656
0.9741411,1.4901161e-07,0.0001257658,1.2069941e-05,0.0,1.8835068e-05,0.0001628995,0.044703424,0.00016376376,0.0016092658
0.9987063,0.0,3.9041042e-06,0.0,3.2782555e-07,2.771616e-06,4.3034554e-05,1.4901161e-07,1.3917685e-05,1.6510487e-05
0.9833768,0.0,3.516674e-06,4.5120716e-05,4.172325e-07,6.377697e-06,0.00014349818,1.1026859e-06,0.020605981,1.2367964e-05
0.7715789,5.9604645e-08,0.06482354,4.261732e-06,0.0,3.2424927e-05,0.0008431673,0.0012262762,0.0373556,0.014021516
0.0002731979,0.0,2.0861626e-07,6.3478947e-06,1.5795231e-06,1.1920929e-07,0.00029185414,0.0,0.9978418,2.7120113e-06
0.99898684,0.0,8.6426735e-07,0.0,1.2516975e-06,5.066395e-07,2.2023916e-05,0.0,5.90086e-06,5.930662e-06
0.0019640625,0.0,3.2782555e-06,3.2424927e-05,5.9604645e-08,2.3841858e-07,0.000114142895,2.9802322e-08,0.99553436,5.722046e-06
0.011634946,0.0,0.00022363663,0.000166744,3.5762787e-07,1.937151e-06,0.0003028512,3.5762787e-07,0.9862644,1.0371208e-05
0.0026708245,0.0,3.671646e-05,8.672476e-05,2.682209e-07,4.440546e-06,0.0004117489,1.1622906e-06,0.9941783,1.3411045e-05
0.00012499094,2.0861626e-07,0.0025770366,0.0004905164,1.8298626e-05,0.99896544,0.017866552,0.00018554926,0.0040566325,1.9103289e-05
0.0023504198,0.00026601553,0.000102669,0.00066927075,0.00017493963,0.0011805892,0.9903307,2.5063753e-05,0.00029468536,0.00027570128
0.00022348762,0.9880172,0.017312795,0.027855426,1.2814999e-06,0.004186958,0.0015597343,0.000626117,0.08093637,0.0005118251
0.00027680397,0.96449494,0.002293229,0.00022739172,2.5719404e-05,0.0026182234,0.0029602349,0.004207611,0.0062600076,0.20489553
8.672476e-06,0.9968797,0.0003182888,0.0022365153,5.9604645e-08,0.0005684495,0.0013198853,3.9994717e-05,0.9684029,0.00029098988
0.9181344,8.940697e-08,7.036328e-05,8.285046e-06,0.0,9.119511e-06,0.0002193749,0.30043408,2.9355288e-05,0.00025004148
0.00030216575,0.0,2.592802e-06,0.99713147,0.017059535,7.1525574e-06,0.00022357702,9.23872e-07,0.0002117753,8.314848e-06
