0,1,2,3,4,5,6,7,8,9
0.98239464,8.940697e-08,7.390976e-06,1.0341406e-05,5.403161e-05,0.0007351637,0.0016426444,3.5375357e-05,0.00069978833,0.0060013533
0.9403445,5.364418e-07,3.5852194e-05,3.9428473e-05,3.2782555e-07,0.0006606579,0.0006352961,0.003217101,9.4771385e-06,0.0059008896
2.002716e-05,1.6450882e-05,0.0018873811,0.00028419495,0.9644898,0.9999819,0.0025404394,0.00010469556,0.00092858076,3.093481e-05
5.9604645e-08,0.00010842085,1.4901161e-07,0.99995065,3.0100346e-06,0.0012855828,0.93051165,0.0,5.7429075e-05,2.0861626e-07
1.2040138e-05,5.9604645e-07,2.2053719e-06,0.9999814,0.0,0.00059857965,0.0011533499,0.0,0.00039073825,1.5795231e-06
0.9745451,0.0,3.1888485e-06,8.940697e-08,2.3841858e-07,1.9222498e-05,6.2167645e-05,0.0055194497,8.34465e-07,0.0019266307
0.025155693,1.4901161e-07,7.0631504e-06,1.2367964e-05,2.592802e-06,0.0009037256,0.00885877,5.3942204e-06,0.9279375,0.0041543543
0.0,5.9604645e-08,5.3048134e-06,0.9999975,0.98564863,5.942583e-05,0.00027939677,0.0,1.090765e-05,0.0
1.2487173e-05,2.9206276e-06,0.00011125207,0.25090033,3.7550926e-06,0.00021609664,0.0010242462,6.7442656e-05,0.9984296,6.5892935e-05
0.0007325709,2.8401613e-05,7.122755e-06,1.0848045e-05,8.672476e-06,0.014814436,0.98098713,0.00035506487,0.0060105324,0.00082978606
0.0008794069,3.0398369e-06,0.52324533,8.264184e-05,1.9788742e-05,0.00022682548,0.0023967922,0.00023901463,0.97204876,0.003917843
0.00810492,0.0,3.9458275e-05,1.7881393e-07,3.5762787e-07,6.9737434e-05,0.00027626753,5.2452087e-06,0.9969208,1.5974045e-05
6.854534e-07,0.7503362,0.0009278357,0.99876857,1.4990568e-05,0.00093171,0.0035565495,8.940697e-08,0.760328,0.00033473969
2.5898218e-05,0.9821882,7.805228e-05,5.310774e-05,1.1652708e-05,0.00051775575,0.00025829673,3.874302e-07,0.0047982037,0.19049346
0.404517,0.0,0.0001346767,1.7881393e-06,1.0728836e-06,0.000448972,0.0016439259,0.00016269088,0.78091466,0.0005605519
0.004951477,0.11856955,0.0015952885,0.00030195713,0.000500232,0.009055316,0.5767331,0.00036132336,0.31249177,0.06009078
1.0728836e-06,1.7881393e-07,1.4871359e-05,0.9999837,5.1170588e-05,0.00023725629,0.0009834468,2.9802322e-08,0.11553669,4.7683716e-07
0.9954697,5.9604645e-08,6.8843365e-06,8.34465e-07,4.7683716e-07,0.00035727024,0.0010764301,2.1755695e-06,3.1381845e-05,0.0070043206
1.7881393e-07,0.0006260276,0.65350527,0.006156951,0.008728415,0.009383917,0.83247596,0.0007212162,0.56009406,0.0007338524
1.3291836e-05,1.92523e-05,1.4007092e-06,0.0048103034,2.413988e-06,0.0006944835,0.7226526,0.0026811957,0.841457,0.0034970343
0.98678786,0.0,2.6136637e-05,1.1026859e-06,1.937151e-06,0.00030392408,0.00039979815,0.00032183528,2.798438e-05,0.0010476112
0.05529198,1.4901161e-07,0.95346284,0.0018097758,3.5464764e-05,0.0001911223,0.001730293,0.000603497,0.000330925,0.00058567524
0.9921329,0.0,8.940697e-07,2.9802322e-07,2.9802322e-07,0.0001706183,0.00035437942,2.1457672e-06,3.6746264e-05,0.005300015
0.0034287572,2.887845e-05,0.0051733255,0.036305755,3.08156e-05,0.002026111,0.015125662,0.00024658442,0.9210693,0.051546425
0.009208381,1.5795231e-06,0.00032392144,7.987022e-06,2.7269125e-05,0.00039160252,0.00603801,0.00010931492,0.9906007,0.000554055
1.6331673e-05,0.005699247,0.068021744,0.00010564923,0.00023806095,0.96802497,0.016674846,0.0031110644,0.031110942,0.061248094
0.002911359,0.0060076416,0.0006941855,1.090765e-05,1.2516975e-06,0.0111165345,0.8916858,0.0003350675,0.0003119707,0.0030611157
0.8323457,0.0,6.145239e-05,1.4901161e-07,1.7285347e-06,5.8233738e-05,0.0006414354,0.21622747,1.1920929e-05,0.007283032
0.11662704,2.9802322e-07,0.00016203523,4.172325e-06,2.1457672e-06,0.0001077652,0.0005097687,0.926249,0.0046220124,0.0043287873
7.748604e-07,0.91702175,0.00040075183,0.5367292,0.00012689829,0.0013949871,0.033446014,2.9802322e-07,0.9850459,0.0013596117
0.0006145239,0.00016790628,5.096197e-06,5.814433e-05,6.854534e-07,0.0070150197,0.9892957,4.211068e-05,0.006981075,0.0017133057
7.915497e-05,2.6583672e-05,1.7106533e-05,4.5895576e-06,1.1622906e-06,0.018523753,0.98882794,2.2441149e-05,0.12420431,0.00047200918
0.10215071,6.7055225e-06,2.887845e-05,3.5762787e-06,2.0861626e-07,0.001717478,0.9752934,1.937151e-06,3.1858683e-05,0.00019800663
1.2218952e-05,6.2584877e-07,1.2516975e-05,0.99992836,0.0005173385,0.00058597326,0.0018362403,0.0,0.00012758374,4.2438507e-05
0.9072687,2.9802322e-08,2.4050474e-05,1.3709068e-06,4.6789646e-06,0.0014438331,0.0018806756,9.983778e-06,0.21162012,0.00060528517
0.9987742,2.9802322e-08,8.314848e-06,1.4901161e-07,5.9604645e-08,0.00075903535,0.0012481213,2.9802322e-07,4.142523e-06,0.00022369623
0.9136976,2.682209e-07,0.0002462566,4.798174e-06,1.23381615e-05,0.0021416247,0.009461105,0.00011101365,0.034515917,0.0075651705
0.99536765,0.0,5.841255e-06,4.5001507e-06,5.185604e-06,0.00038012862,0.00052562356,1.3381243e-05,0.00014185905,0.0029989183
0.99243814,5.9604645e-08,1.4275312e-05,1.5795231e-06,2.7418137e-06,0.00065258145,0.0011403561,9.804964e-06,3.6358833e-05,0.0050573647
0.0007612109,2.9802322e-08,5.0365925e-06,1.5109777e-05,3.4987926e-05,0.00021013618,0.0007824302,0.0003773868,0.98978937,6.3836575e-05
5.632639e-06,1.4901161e-07,0.99558836,0.000589937,9.441376e-05,0.0004297495,0.008335769,0.023316741,0.95060664,2.3573637e-05
0.90583384,2.9802322e-08,9.268522e-06,4.798174e-06,1.5109777e-05,0.0016584098,0.0014331639,2.3245811e-06,0.09032014,0.0028620958
5.841255e-06,4.7385693e-06,0.0011949241,1.2040138e-05,8.034706e-05,0.9999954,0.008209258,0.00013324618,0.02187702,6.839633e-05
8.6426735e-07,0.9992744,8.6426735e-05,0.003650844,0.00021496415,0.005239755,0.00041636825,2.6524067e-06,0.9077054,0.00019162893
0.00023555756,4.172325e-07,3.4809113e-05,3.4064054e-05,5.722046e-06,9.483099e-05,0.0008828342,8.094311e-05,0.99873024,0.00051650405
0.001865536,0.0,0.00014331937,8.6426735e-07,1.7881393e-07,2.2351742e-06,0.0001334846,0.9991174,0.00044187903,0.0002399087
0.084149,8.6426735e-07,0.0024777353,8.672476e-06,4.452467e-05,0.0004892647,0.0017192066,4.1544437e-05,0.94569427,0.0024603307
0.019005269,3.796816e-05,0.003901124,0.08057344,0.0008906722,0.011417508,0.011147946,0.00082340837,0.87520874,0.011093527
8.2820654e-05,0.9965044,0.00015613437,0.00023469329,0.00012406707,0.011116922,0.0005212724,3.6358833e-06,0.057618946,0.008021325
0.9985671,0.0,6.2584877e-07,0.0,0.0,0.0001911223,0.00031235814,3.874302e-07,4.9233437e-05,0.0003297627
0.005500436,2.4616718e-05,0.0011164546,0.00017797947,6.1661005e-05,0.2935855,0.08749363,6.070733e-05,0.0010861158,0.02412957
8.6039305e-05,0.9971921,0.00019019842,1.5318394e-05,1.2665987e-05,0.001373738,0.003109634,9.655952e-06,0.0052470863,0.0102036
1.1920929e-06,2.3663044e-05,0.00027009845,2.8550625e-05,1.6152859e-05,0.9999271,0.020223826,8.5771084e-05,0.54520583,7.233024e-05
0.5387374,2.9802322e-07,2.065301e-05,4.23193e-06,4.172325e-07,0.0008737743,0.0026459694,0.0021663308,0.7206497,0.001498282
0.9079224,2.5629997e-06,0.00021138787,6.377697e-06,3.9726496e-05,0.00220865,0.0019479096,1.2993813e-05,0.005770862,0.0773882
6.210804e-05,0.99730766,0.0006982088,0.00036674738,7.1167946e-05,0.004571289,0.00029093027,6.854534e-07,0.038891345,0.004087329
0.94168127,8.940697e-08,2.321601e-05,2.9802322e-08,2.9802322e-08,0.00016483665,0.0010716021,3.9368868e-05,0.040325224,0.007922709
0.00014808774,0.9958741,0.0019077957,0.00022485852,2.631545e-05,0.008597672,0.006221622,5.51939e-05,0.00031483173,0.0032928586
0.9680261,1.1920929e-07,0.00021201372,1.3023615e-05,4.133582e-05,0.00061905384,0.0036811829,0.0020528138,0.0040504634,0.003876388
0.00053822994,0.9938318,0.0001976192,4.172325e-06,8.583069e-06,0.0021308959,0.0017760098,1.1920929e-07,0.051846653,0.010835111
0.9977109,0.0,3.7252903e-06,7.4505806e-07,8.940697e-08,0.00016409159,0.000618279,3.245473e-05,9.983778e-06,0.00088113546
0.013588846,2.7418137e-06,0.00016993284,2.3245811e-06,1.7881393e-06,0.84747726,0.004550606,3.3020973e-05,0.21025479,0.000531584
2.9206276e-06,1.5199184e-05,0.00235641,0.0019257665,0.9909873,0.99990463,0.0030229092,1.8954277e-05,0.00020197034,1.5825033e-05
0.03767991,0.0008430481,5.7548285e-05,5.325675e-05,3.3408403e-05,0.00059849024,0.015991658,7.480383e-06,0.2472786,0.40249088
0.1439054,1.7136335e-05,0.00086432695,1.5497208e-05,5.3942204e-05,0.00073617697,0.0154902935,2.6583672e-05,0.6152317,0.062871456
0.9885625,0.0,5.6385994e-05,2.2649765e-06,4.4703484e-07,0.0002978742,0.00060907006,0.0010652244,2.259016e-05,0.00034672022
0.9926877,8.940697e-08,2.5004148e-05,2.0861626e-07,1.4901161e-07,0.0007506311,0.00092950463,0.0005996227,0.00023183227,0.00033134222
2.6077032e-05,3.5762787e-07,0.001937002,4.9829483e-05,0.001970768,4.798174e-06,0.0017874241,0.002257198,0.9963425,0.0054750144
7.328391e-05,3.1888485e-06,0.001635462,0.00038525462,0.00012350082,9.3102455e-05,0.00306651,0.38548225,0.7343211,0.02832508
0.0027311146,0.0,3.4213066e-05,0.0,0.0,9.23872e-07,5.441904e-05,0.9995168,2.1457672e-06,3.5077333e-05
0.3363371,2.3841858e-07,4.87864e-05,2.1725893e-05,3.874302e-06,0.00034490228,0.0014681816,2.7745962e-05,0.78717613,0.0020882487
0.9929197,2.9802322e-08,1.552701e-05,2.1755695e-06,7.1525574e-07,0.00034743547,0.0009791553,1.5854836e-05,0.00064367056,0.0015752614
5.5730343e-06,1.8209219e-05,0.00039851665,0.9998884,1.0728836e-06,0.00020375848,0.0016481876,1.013279e-06,0.00012224913,9.62615e-06
2.3394823e-05,1.4901161e-07,2.8312206e-06,0.9999918,3.874302e-07,8.511543e-05,0.00037392974,0.0,3.322959e-05,1.7881393e-07
1.6391277e-06,5.9604645e-08,5.3942204e-06,0.9999913,3.1590462e-06,0.00018978119,0.0003219545,0.0,7.045269e-05,2.0861626e-07
0.0015087724,3.2186508e-06,1.6510487e-05,1.847744e-06,1.6361475e-05,0.0009875298,0.0104883015,3.7133694e-05,0.9852766,0.0027123392
0.49265656,0.0,0.00013518333,1.5288591e-05,1.4603138e-06,9.346008e-05,0.00048968196,0.79051363,0.00016519427,0.0028673708
0.95145005,8.940697e-08,4.2766333e-05,1.3113022e-05,4.7683716e-07,0.0002631247,0.0018338263,0.000451833,6.2555075e-05,0.04142812
0.65657777,5.9604645e-08,1.6242266e-05,2.3841858e-07,3.5762787e-07,0.00024735928,0.001522392,0.024126858,0.061635107,0.0007647574
0.52615094,0.0,2.6226044e-06,0.34320116,2.2053719e-06,0.0006710589,0.0007159114,9.340048e-05,0.0004911721,2.9563904e-05
0.9964251,0.0,6.1392784e-06,9.536743e-07,4.4703484e-07,0.001283586,0.0018432438,1.54078e-05,0.00010213256,0.00075116754
0.005219817,0.0,4.1127205e-06,1.975894e-05,0.9991497,0.00026330352,0.0018643737,1.2040138e-05,1.7523766e-05,2.1666288e-05
0.9951741,0.0,0.00011226535,2.026558e-06,1.1920929e-07,0.00023567677,0.0024262369,3.0070543e-05,0.00021344423,0.00013715029
0.99738735,0.0,9.298325e-06,1.4901161e-07,5.364418e-07,0.00060898066,0.00044715405,7.033348e-06,5.8680773e-05,0.0001771748
0.00014385581,2.115965e-06,0.02007702,0.00010225177,0.004304886,0.00010317564,0.01665017,0.0038876235,0.9983328,2.1219254e-05
0.9769957,0.0,0.00019481778,1.5497208e-06,7.5101852e-06,0.00018641353,0.0013785958,0.0058297515,1.6629696e-05,0.004487574
0.0007557869,6.2584877e-07,1.2725592e-05,1.1831522e-05,2.9802322e-07,0.36058766,0.021980196,0.00015088916,0.86517274,0.00016358495
6.1392784e-06,1.6748905e-05,0.00069847703,0.00022378564,9.0420246e-05,0.00073480606,0.008590937,0.00014340878,0.0027857125,0.9822713
1.2606382e-05,1.1920929e-07,9.357929e-06,0.9999872,4.6491623e-06,0.0005567968,0.0007252395,0.0,0.0027856529,6.2584877e-07
6.082654e-05,0.9935187,0.0014712214,0.03431177,0.040667087,0.0034364164,0.0013897717,1.5258789e-05,0.062552005,0.0029480457
0.07718721,7.748604e-07,9.6946955e-05,3.1381845e-05,0.0006056726,0.00038838387,0.0035014153,0.0022215545,0.8990383,0.0109215975
0.9762481,5.9604645e-08,2.3454428e-05,2.0861626e-07,8.940697e-08,0.0009329021,0.0011588633,0.00058710575,0.021483064,0.0004774034
9.387732e-06,0.0,2.0861626e-07,1.7881393e-07,0.0,0.0,9.208918e-06,0.0,9.000301e-06,0.9999783
0.4893116,5.9604645e-08,1.0162592e-05,7.238984e-05,2.9802322e-07,0.0001091063,0.00020372868,0.44011784,0.00085899234,0.014272422
1.1920929e-06,0.00018966198,0.9062948,0.003459394,0.00624913,0.9999529,0.004583627,0.0010081232,0.024101555,0.00021457672
0.96350837,2.9802322e-08,5.990267e-06,9.834766e-07,1.1026859e-06,0.0014493465,0.0012044013,8.6426735e-07,0.05692342,0.00021335483
0.00016483665,1.2308359e-05,0.88590443,2.2739172e-05,0.00094148517,0.00042694807,0.04755369,3.5643578e-05,0.9515215,0.0010708869
0.9046116,2.9802322e-08,0.00023132563,2.592802e-06,2.2619963e-05,0.00010243058,0.0014695823,0.008506894,0.00021931529,0.0118789375
2.9802322e-07,0.0006750822,6.0617924e-05,0.9999836,5.51641e-05,0.013509303,0.49954873,1.1920929e-07,0.11633447,3.5226345e-05
6.1273575e-05,2.682209e-07,1.5735626e-05,1.5079975e-05,1.4901161e-06,8.72612e-05,0.00051561,0.009732336,0.00031095743,0.9865091
0.9871296,2.9802322e-08,0.00026595592,1.937151e-06,4.172325e-07,0.00024801493,0.00076937675,0.000108748674,0.0011892319,0.0013634264
0.9822136,2.9802322e-08,3.427267e-05,8.225441e-06,8.761883e-06,0.0015389025,0.0035052598,2.2947788e-06,0.004391104,0.0032204092
0.0001347363,9.536743e-07,0.0002438426,5.4121017e-05,0.0057367682,0.0001218915,0.001898557,7.686019e-05,0.9989008,0.00022476912
0.32845366,1.7881393e-07,6.4224005e-05,1.2218952e-05,0.00018376112,7.098913e-05,0.0004993081,2.297759e-05,0.08325386,0.2382893
0.9905647,0.0,2.2649765e-06,6.854534e-07,5.4836273e-06,0.0007904768,0.00046545267,3.412366e-05,6.633997e-05,0.00058594346
4.172325e-07,0.94995934,0.0051402748,0.9963795,0.00032749772,0.1257622,0.020809501,2.3841858e-07,0.019946873,0.013654143
1.7285347e-05,2.115965e-06,0.000546664,3.0636787e-05,0.00033128262,0.9999914,0.00063946843,0.04098022,0.0004261136,8.970499e-05
1.7940998e-05,0.00089019537,0.19445434,0.99890494,0.0074323714,0.002783984,0.008885086,2.9802322e-07,0.15888631,0.006438017
0.91132706,1.4901161e-07,6.1541796e-05,6.854534e-07,1.0073185e-05,0.0011855066,0.003536731,0.000104784966,0.036157638,0.0113093555
4.2945147e-05,3.695488e-06,1.0609627e-05,0.9999729,4.1127205e-06,0.00069209933,0.002693206,0.0,0.0022107065,9.328127e-06
0.9793023,0.0,1.54078e-05,4.6491623e-06,6.765127e-06,0.00018823147,0.00096443295,0.009147704,0.00016516447,0.00068980455
9.1314316e-05,3.2186508e-06,0.0022367537,0.9103897,0.999226,0.0003143251,0.0030264556,3.0398369e-06,0.00072288513,4.8279762e-05
2.3841858e-07,0.7625116,0.00013121963,0.6125571,1.2695789e-05,0.0023767948,0.0038247705,4.172325e-07,0.9970206,0.00041738153
0.9914776,5.9604645e-08,4.172325e-06,1.847744e-06,3.427267e-06,0.0021223128,0.0031626225,1.0728836e-06,0.0007060468,0.0021757483
1.5497208e-06,1.6361475e-05,0.99558073,6.28829e-05,0.00044727325,0.0014925003,0.011505395,4.5895576e-06,0.93522394,4.2319298e-05
0.9012806,4.2021275e-06,0.025841892,4.0233135e-06,1.5169382e-05,0.0018467009,0.006065309,7.325411e-05,0.0038663447,0.02330327
1.3589859e-05,0.00088891387,0.0003501475,0.00025862455,0.00010544062,0.9455971,0.110147774,1.3113022e-05,0.9504353,0.0004016459
1.2516975e-05,0.00015300512,0.0048309565,0.000659585,0.0013382733,0.99997246,0.0191831,4.2170286e-05,0.015426666,0.00013130903
1.7911196e-05,1.8298626e-05,0.00052154064,0.9999745,1.7881393e-06,0.00133425,0.08421448,1.1920929e-07,0.00020265579,1.1742115e-05
1.6838312e-05,1.4901161e-07,0.00018513203,1.4901161e-06,1.4305115e-06,1.3321638e-05,0.00030460954,0.99915475,0.0032070577,0.0018040538
0.98215497,2.9802322e-08,6.467104e-06,1.2516975e-06,1.1026859e-06,0.0011456609,0.0015440285,5.096197e-06,0.0065966547,0.0030520558
0.98975486,0.0,5.6028366e-06,4.172325e-07,1.1920929e-07,0.00037440658,0.0008314252,9.956956e-05,0.00021448731,0.0012785494
0.9944552,0.0,1.1712313e-05,1.1920929e-07,4.7683716e-07,0.00039604306,0.00094634295,1.1533499e-05,0.00015804172,0.0017055571
0.25937724,8.940697e-08,6.2286854e-06,1.66893e-06,5.364418e-07,0.00011834502,0.00035327673,8.317828e-05,0.8822886,0.0007842481
0.6438129,3.2782555e-06,1.5348196e-05,2.6851892e-05,1.4334917e-05,0.001312077,0.0024218261,1.1086464e-05,0.049741447,0.05069405
0.00014573336,0.0,3.0696392e-06,0.0,1.4901161e-07,0.0,7.4505806e-07,2.9802322e-08,6.2674284e-05,0.99999785
0.0008432567,0.00013947487,0.0052891076,0.0012004972,1.1831522e-05,9.62615e-05,0.004642874,0.00012981892,0.27454108,0.83470094
3.5762787e-06,0.9614194,0.00013315678,0.0041472316,1.0699034e-05,0.001349926,0.00026071072,8.195639e-06,0.0039920807,0.18799126
0.0446302,1.1920929e-07,6.9737434e-05,5.3703785e-05,0.0001296103,0.00021481514,0.002398014,3.1083822e-05,0.9547656,0.0020419657
0.9362612,4.172325e-07,0.00012716651,3.2782555e-06,2.7120113e-06,0.0006817579,0.0017169118,1.0281801e-05,0.024200737,0.020231187
3.4600496e-05,0.99766517,0.0006143749,3.2305717e-05,3.0100346e-05,0.011782199,0.0064600706,1.7374754e-05,0.039326966,0.0029091537
0.006904125,8.34465e-07,9.75728e-05,4.0769577e-05,4.172325e-06,9.292364e-05,0.0022210777,2.0742416e-05,0.98563844,0.0016925335
0.012875527,0.00018292665,0.00020420551,2.8192997e-05,0.0003029108,0.0028597414,0.69408184,0.0054285824,0.0053403974,0.017384619
0.93717486,2.9802322e-08,4.5597553e-06,1.1920929e-07,2.0861626e-07,0.0008286536,0.0019960105,1.5795231e-06,0.19303373,0.0032546818
4.0233135e-06,0.9933635,0.0012805462,0.8337151,2.092123e-05,0.0023499727,0.0013369322,1.4901161e-07,0.0023214817,0.0004377067
1.3113022e-06,4.887581e-06,0.00038206577,0.99893546,0.0024998784,0.00061765313,0.0027669668,2.115965e-06,0.00025722384,0.0035848022
0.759168,2.9802322e-07,1.552701e-05,0.12541929,0.00073203444,0.00956288,0.009859949,4.2915344e-05,0.03944403,0.0059246123
0.6509483,2.1755695e-06,3.656745e-05,7.748604e-07,1.013279e-06,0.0004184544,0.0015228391,9.745359e-06,0.55288124,0.01642549
0.18772724,2.3841858e-07,0.020094395,2.771616e-06,1.847744e-05,0.00033301115,0.002212137,2.4616718e-05,0.7990476,0.00088471174
3.2812357e-05,2.9802322e-08,2.232194e-05,1.7881393e-07,1.3411045e-06,1.6331673e-05,0.00088334084,0.00040915608,0.9996009,9.7960234e-05
0.23009035,2.5629997e-06,3.3974648e-06,3.2484531e-06,2.9802322e-07,0.00023013353,0.00077214837,1.2487173e-05,0.662613,0.030804127
0.89811754,2.682209e-07,9.071827e-05,2.8312206e-06,5.8710575e-06,0.0012635887,0.0043661892,0.0009558499,0.09682876,0.0006662309
0.94166267,2.9802322e-08,7.18236e-05,1.013279e-06,8.6426735e-07,0.0008454919,0.0027331412,7.227063e-05,0.005047351,0.0091905
0.99694514,0.0,1.6987324e-06,6.854534e-07,2.0861626e-07,0.00032803416,0.0003296733,1.9550323e-05,9.846687e-05,0.0005669296
7.987022e-06,4.887581e-06,1.7881393e-07,0.9999759,3.874302e-07,0.00057157874,0.01421833,0.0,1.6212463e-05,1.66893e-06
0.4962037,2.9802322e-08,3.695488e-06,3.5762787e-07,2.9802322e-07,0.00051644444,0.0026958287,1.04010105e-05,0.8746489,0.0004889667
0.9649831,0.0,3.582239e-05,1.564622e-05,4.887581e-06,0.00020042062,0.0005017221,0.0045922995,0.0016712844,0.004647732
0.989388,2.9802322e-08,9.149313e-06,7.4505806e-07,2.3841858e-07,0.00018876791,0.0003530085,2.6166439e-05,1.9282103e-05,0.0069378316
0.11552045,1.1920929e-07,0.0013223886,1.3411045e-06,2.5123358e-05,0.00023451447,0.0018003285,2.43783e-05,0.90450704,0.0021161437
0.99111676,5.9604645e-08,6.9618225e-05,1.9073486e-06,1.1920929e-07,0.00066804886,0.00080931187,1.50203705e-05,0.0014238358,0.0010379553
0.64745057,3.874302e-07,0.00020095706,2.9057264e-05,9.834766e-06,0.00076436996,0.0016951561,3.7133694e-05,0.25911686,0.008990109
0.0005033314,0.88525003,0.0002669394,3.963709e-06,2.115965e-06,0.0004695654,0.0036449134,2.861023e-06,0.0026275218,0.035976082
0.0039923787,1.4424324e-05,4.1663647e-05,0.00034943223,5.662441e-07,0.0020167828,0.9655329,0.0106523335,6.005168e-05,0.00023433566
0.014111698,0.0016806126,0.01646939,0.001242131,0.0014431477,0.8599074,0.13637397,0.00088483095,0.13018847,0.009522408
0.007874906,5.662441e-07,1.5169382e-05,0.017312646,1.6391277e-05,0.001316607,0.014188826,7.212162e-06,0.9466597,0.016025662
0.4835254,1.1622906e-06,5.4836273e-06,2.3841858e-06,1.1920929e-07,5.4448843e-05,0.0003514588,7.3611736e-06,5.4836273e-05,0.84417915
0.0001128912,2.4437904e-06,0.00034213066,0.0003363788,0.01901707,0.00013494492,0.0027977228,0.35197985,0.7928046,0.0006122291
2.7120113e-05,0.99814343,0.00039112568,0.001589179,0.0004363656,0.0051953197,0.0015383661,1.1622906e-06,0.32905892,0.0053752363
2.8312206e-06,1.1920929e-07,4.3213367e-06,0.99999297,1.6570091e-05,0.00037649274,0.00071263313,0.0,0.000184834,3.5762787e-07
0.99898016,0.0,2.3543835e-05,1.7881393e-07,1.1920929e-07,8.21054e-05,0.000703305,5.00679e-06,1.7881393e-06,0.00014573336
0.032324374,3.5762787e-06,0.0003708005,3.555417e-05,2.592802e-06,2.3156404e-05,0.0006469786,0.90501845,2.9146671e-05,0.003310293
0.012072086,3.874302e-07,0.00018137693,3.129244e-05,6.2584877e-07,0.99622995,0.003804922,4.3302774e-05,0.005011648,6.651878e-05
6.7681074e-05,2.8908253e-06,3.4332275e-05,4.172325e-07,2.9802322e-08,1.9967556e-06,0.00024458766,1.5199184e-06,1.0728836e-06,0.9999272
1.4603138e-06,0.9981306,7.134676e-05,0.0005566776,1.0550022e-05,0.002688259,0.0020049214,6.2584877e-07,0.99348295,0.00014787912
5.9604645e-08,6.2823296e-05,0.0012218058,0.9994583,0.038175344,0.006190181,0.027170599,1.3113022e-06,0.0116826,0.000182271
0.011444807,4.4107437e-06,0.00017273426,3.5643578e-05,3.1530857e-05,0.00026717782,0.0036946833,4.300475e-05,0.9837594,0.0032241642
1.8298626e-05,0.0034303665,0.000106960535,0.00018593669,2.4348497e-05,0.011215806,0.38290793,9.7960234e-05,0.97923636,0.007127404
0.96016085,8.34465e-07,0.0007928014,6.747246e-05,7.170439e-05,0.0011001527,0.0054256916,5.632639e-06,0.0024715066,0.0133473575
0.43678784,1.1920929e-07,8.4877014e-05,2.8908253e-06,3.2782555e-07,0.0002821982,0.0013710856,0.0003913045,0.6669809,0.0028130412
0.00075399876,8.940697e-08,4.3809414e-06,7.95722e-06,1.2069941e-05,0.000108629465,0.0007632971,7.942319e-05,0.99823964,0.0007520318
0.0011236668,0.0005964041,8.249283e-05,0.01169613,0.00084236264,0.22632217,0.85515064,1.4126301e-05,0.016534835,0.039527923
0.99705577,2.9802322e-08,1.052022e-05,1.9073486e-06,2.0861626e-05,0.0012103915,0.001662612,3.33786e-06,0.00019422174,0.0005890429
0.9945128,1.4901161e-07,7.5399876e-06,3.2782555e-07,9.23872e-07,0.0003220737,0.001747489,1.1950731e-05,8.85427e-05,0.0022644997
9.584427e-05,2.9802322e-07,0.00028261542,4.5120716e-05,0.00028166175,0.00022029877,0.0012221932,0.0010620654,0.028394222,0.9163703
0.6895498,7.1823597e-06,6.54161e-05,0.00032827258,2.4855137e-05,0.0027899742,0.11103159,0.00028324127,8.2582235e-05,0.0018749237
0.0006221235,0.9908795,0.0017057359,0.0002681911,5.4121017e-05,0.0029204488,0.028955907,7.298589e-05,0.021387815,0.009196758
0.0,3.5762787e-07,9.6321106e-05,0.99997234,0.9225284,0.00020447373,0.0017908812,5.9604645e-08,0.0001065433,1.7881393e-07
0.0005733967,6.556511e-07,2.0861626e-07,2.0205975e-05,2.3543835e-06,0.0033741593,0.9949173,1.1920929e-07,0.00010827184,0.000110298395
0.9827593,0.0,4.7415495e-05,2.0861626e-07,3.5762787e-07,3.5762787e-05,0.00033399463,0.012627065,1.1712313e-05,0.00028279424
4.0650368e-05,8.046627e-07,0.9868357,3.7550926e-05,8.046627e-06,0.0006156564,0.005167961,1.642108e-05,0.8768462,0.00012981892
0.0,2.8550625e-05,8.2194805e-05,0.00020119548,9.3489885e-05,0.9999989,0.0108578205,3.8146973e-06,0.020220011,0.000102847815
0.9885682,8.940697e-08,2.0802021e-05,1.0818243e-05,1.1384487e-05,0.0008389056,0.001372695,9.4652176e-05,0.0017924011,0.0048202574
7.748604e-05,0.00019022822,0.0021559298,9.5665455e-05,0.0002580285,0.99972594,0.017728835,0.00046271086,0.00132972,0.0052977502
0.000515908,2.9802322e-08,6.854534e-07,5.9604645e-08,0.0,7.867813e-06,0.00019919872,0.00039544702,0.9974259,0.00025114417
5.662441e-07,0.00024688244,0.00020363927,0.0017376244,5.888939e-05,0.23842028,0.9641596,2.2739172e-05,0.21077582,0.0011813343
1.8209219e-05,0.99227715,0.0026509464,0.49259365,4.7832727e-05,0.027632207,0.018119127,7.5101852e-06,0.47577268,0.008762419
3.1888485e-06,4.053116e-06,0.00082165,7.1823597e-06,3.9994717e-05,0.9999988,0.0020331442,5.453825e-06,0.07757339,1.0251999e-05
0.14083275,9.575486e-05,0.000107973814,0.00012433529,2.1457672e-06,0.00049450994,0.0014837682,1.12354755e-05,0.00034314394,0.9190818
0.7977681,3.2782555e-07,6.109476e-06,1.1920929e-06,1.0728836e-06,0.0013853908,0.0022847056,4.529953e-06,0.45086792,0.0024806857
0.5358447,4.7683716e-07,4.8339367e-05,1.4901161e-06,9.834766e-07,0.0007915497,0.000942111,0.011088848,0.64151275,0.0058992505
8.34465e-07,0.00013327599,0.00759238,0.00024929643,0.000531584,0.9985533,0.018655717,0.00015252829,0.0031005442,0.008903086
5.990267e-06,0.0005835593,0.5305566,0.0002515614,0.00016644597,0.0002117157,0.0013286769,6.869435e-05,0.99616224,0.00045382977
0.0027671158,1.6897917e-05,0.049799055,0.00024142861,0.21850905,7.772446e-05,0.0034381151,9.691715e-05,0.4469474,0.17268321
5.185604e-06,0.00045490265,0.00026860833,0.0002849996,4.0858984e-05,0.93359244,0.0459131,6.8724155e-05,0.95395577,0.00025495887
0.96878177,1.4901161e-07,5.593896e-05,1.1622906e-06,5.6028366e-06,0.0003605783,0.0010340512,0.0002078116,0.0034623742,0.0032833815
0.817377,5.364418e-07,3.221631e-05,3.4868717e-06,6.854534e-07,0.00032776594,0.0014021099,4.23193e-06,0.027203262,0.10354149
0.0005219281,0.00075516105,0.0015229881,0.00067973137,0.0016878247,0.9459407,0.12818485,0.0045066476,0.0038751066,0.01579696
4.336238e-05,2.9802322e-08,0.9987433,2.554059e-05,0.000116974115,0.00025123358,0.00722,5.26309e-05,0.95951796,4.1544437e-05
2.4527311e-05,0.0032144487,0.76683486,0.0003810227,0.0054470897,0.7651073,0.08056384,0.0026903749,0.7909149,0.0018712282
5.543232e-06,0.0034407973,0.0004375577,0.9010873,0.00064471364,0.0019508004,0.90151167,2.592802e-06,0.47067064,0.0052113533
0.045975506,3.46303e-05,0.0003463328,0.8608625,0.882198,0.0026011765,0.009642094,4.172325e-05,0.0011698902,0.005843848
0.0008830726,1.1920929e-07,0.9990779,3.8594007e-05,1.0877848e-05,0.0004735291,0.019952,2.720952e-05,0.0001681149,0.00015339255
0.24340433,0.0,6.2674284e-05,2.0563602e-06,3.5762787e-06,0.00018653274,0.0007467866,8.314848e-06,0.86648893,0.0015957654
2.3245811e-06,0.24315113,0.08227584,0.99988914,0.0031253994,0.0015410185,0.0018147528,2.682209e-07,0.0037476718,9.417534e-05
0.99702084,0.0,5.453825e-06,4.4703484e-07,0.0,0.00041040778,0.0010159612,1.758337e-05,5.2571297e-05,0.00023236871
0.21886146,2.9027462e-05,1.8626451e-05,2.1457672e-06,3.2395124e-05,0.006195992,0.6904152,2.7120113e-06,0.0028317273,0.00060749054
0.0018137395,8.940697e-08,4.1991472e-05,4.7385693e-06,0.01738587,0.00012046099,0.0018026829,4.774332e-05,0.9962239,7.787347e-05
2.0712614e-05,9.23872e-07,3.606081e-06,0.99998206,6.4373016e-06,0.0008844137,0.0057276487,0.0,0.00038334727,6.4969063e-06
0.99631774,0.0,2.2947788e-06,1.0430813e-06,3.6358833e-06,0.0002206862,0.00079494715,0.00019592047,4.1872263e-05,0.00025254488
0.06910679,8.046627e-06,8.395314e-05,0.9772296,1.8417835e-05,0.009899586,0.027726084,6.1392784e-06,0.0011245608,0.00433892
0.032432973,5.9604645e-08,5.1021576e-05,1.2218952e-06,0.04996839,0.00017797947,0.0007685721,0.0010495186,0.96237123,0.00054875016
2.9593706e-05,2.8967857e-05,0.0008791983,2.3126602e-05,4.6372414e-05,0.99999166,0.01253292,3.7640333e-05,0.031436622,5.477667e-05
0.9940896,5.9604645e-07,3.260374e-05,6.070733e-05,2.2649765e-06,0.0012024045,0.005772382,3.0398369e-06,7.4207783e-06,0.0006916523
2.3901463e-05,5.930662e-06,0.0005643368,0.99994856,1.7285347e-06,6.353855e-05,0.00029611588,0.0,6.1392784e-06,2.0861626e-07
0.9691107,1.1622906e-06,0.00020825863,4.798174e-06,2.1070242e-05,0.00037652254,0.0018230081,0.0009226799,0.00023284554,0.056830198
0.00013771653,0.0,3.260374e-05,5.662441e-07,8.940697e-08,1.9669533e-06,0.00017303228,0.9997078,0.00015726686,9.575486e-05
0.0009662509,4.529953e-06,2.4050474e-05,3.2275915e-05,1.6570091e-05,0.0032050908,0.8669706,6.3985586e-05,0.045469046,0.001468122
0.00048667192,5.9604645e-08,8.85129e-06,2.4735928e-06,1.0728836e-06,0.000116080046,0.00038424134,9.834766e-06,0.9994074,9.006262e-05
0.9978843,0.0,2.5331974e-06,5.364418e-07,9.834766e-07,0.00037059188,0.0011880398,6.020069e-06,0.00013154745,0.00027403235
0.05391687,1.8775463e-06,0.0018377304,1.8656254e-05,5.0365925e-06,0.00018396974,0.0043818653,0.0001617074,0.66461563,0.075337976
0.91157997,1.7881393e-07,5.337596e-05,2.0861626e-07,3.4570694e-06,0.028976321,0.00970614,4.23193e-06,0.00043019652,0.0013769269
5.64456e-05,3.2782555e-07,3.5464764e-06,0.9999508,4.7683716e-07,0.00086176395,0.0017511845,0.0,0.001899749,3.3468008e-05
0.618029,7.4505806e-07,0.01189515,4.786253e-05,0.00010249019,0.00024938583,0.0033352077,9.730458e-05,0.11238521,0.030874223
0.0012697577,0.7713331,0.018536597,0.0013517141,2.8252602e-05,0.06447068,0.14815977,5.4597855e-05,0.015310198,0.10452744
0.99054825,2.9802322e-08,4.3183565e-05,1.2516975e-06,1.3113022e-06,0.0009576678,0.0009973347,1.8119812e-05,0.0038718283,0.00059470534
0.89469755,8.34465e-07,0.0001296699,9.23872e-07,4.0233135e-05,0.0018634498,0.012345582,0.002393037,0.00018793344,0.0096619725
2.3841858e-07,0.001719445,5.841255e-06,0.99998665,1.4811754e-05,0.008012325,0.17925367,0.0,0.0003440678,5.066395e-07
0.9969877,0.0,1.2516975e-06,2.0861626e-07,2.9802322e-08,0.00025328994,0.0011073947,1.2516975e-06,0.00045725703,0.0014837384
6.464124e-05,0.00036337972,0.027995706,2.8192997e-05,4.0620565e-05,0.987929,0.1873599,5.787611e-05,0.00058946013,0.001850456
6.854534e-07,0.99840134,0.0002478361,0.00054088235,4.082918e-05,0.0025267005,0.00073096156,2.3841858e-07,0.9684492,0.00047513843
0.99330795,0.0,1.32620335e-05,1.9073486e-06,2.3841858e-07,0.0012066662,0.0031487644,3.427267e-06,0.00083836913,0.0040276647
0.987693,2.9802322e-08,5.4985285e-05,0.000184834,3.0696392e-06,0.00042030215,0.00094366074,4.6104193e-05,0.0018794537,0.0006479323
0.037724853,1.1026859e-06,6.67572e-06,1.5258789e-05,0.00014320016,0.00096946955,0.85595775,6.6161156e-06,0.000106334686,0.0016007721
0.0074881613,0.0,3.6478043e-05,2.9802322e-07,1.4901161e-07,2.682209e-06,0.00026392937,0.9966063,8.5264444e-05,0.00012791157
0.001729548,5.096197e-06,3.296137e-05,5.841255e-06,2.95043e-06,0.99905646,0.12773475,3.325939e-05,0.019815177,0.0006560385
8.645654e-05,0.9461386,0.0010006726,0.00074759126,7.1525574e-05,0.16893941,0.0012280345,6.4074993e-06,0.27445346,0.039966017
0.9964874,0.0,4.798174e-06,2.0861626e-07,2.9802322e-07,0.0016015768,0.0039921105,2.6226044e-06,9.0539455e-05,0.0007465482
0.000115036964,4.4703484e-07,4.0233135e-05,0.15425593,1.9580126e-05,0.00021004677,0.0022512674,0.00017565489,0.99784195,0.00010344386
0.99118555,0.0,1.4305115e-06,4.7683716e-07,5.9604645e-08,0.00018680096,0.00044709444,6.8992376e-05,0.00035199523,0.0012521446
6.881356e-05,3.2484531e-06,1.1742115e-05,0.9999504,0.0031474829,0.000495404,0.0016315877,8.940697e-08,4.044175e-05,5.9604645e-08
0.017175347,2.8967857e-05,0.00032502413,0.0001797378,1.4126301e-05,0.9695616,0.04849574,1.4603138e-06,0.0005759597,0.00040629506
0.9663927,0.0,1.3500452e-05,4.7683716e-07,3.6358833e-06,7.4744225e-05,0.00023677945,0.008813411,3.3468008e-05,0.0027071536
8.404255e-06,0.00027930737,0.0001232624,1.8805265e-05,0.00018462539,0.0030290484,0.9316768,1.22487545e-05,0.9232874,0.0017049313
0.882133,7.1525574e-07,7.995963e-05,1.7255545e-05,9.298325e-06,0.0005031824,0.0018382668,9.357929e-05,0.0024320483,0.12111315
0.67923784,0.0,8.46386e-06,4.7683716e-07,0.00011998415,4.3064356e-05,0.00021404028,0.0,2.399087e-05,0.010673165
0.9932166,0.0,1.3113022e-05,1.0728836e-06,3.695488e-06,0.00047898293,0.0015620887,0.0007176101,0.00031611323,0.00025340915
0.0046483576,2.9802322e-08,4.172325e-06,1.2218952e-06,3.993511e-06,5.8323145e-05,0.0003912151,7.2717667e-06,0.9954053,0.00041270256
0.25958776,8.940697e-08,5.7816505e-06,3.0577183e-05,3.7252903e-06,0.00031489134,0.00043812394,0.00011590123,0.7626916,0.0031606555
0.00059971213,7.1823597e-06,0.00089854,0.00028818846,0.000446558,0.0006791949,0.013328195,8.916855e-05,0.26957068,0.4218532
0.69557774,8.940697e-08,2.1159649e-05,1.5199184e-06,3.5464764e-06,0.0009069741,0.0015086532,4.0471554e-05,0.45621255,0.0013774335
2.3186207e-05,3.8951635e-05,0.0005878806,0.99992704,5.5462122e-05,0.0033411682,0.050056517,1.4901161e-07,0.0017167032,5.4240227e-05
0.00018104911,2.9146671e-05,0.00030702353,4.798174e-06,2.2947788e-06,0.0013408363,0.022217244,0.017651081,0.96936965,0.001039952
8.34465e-07,5.7816505e-06,0.0017870665,0.9999939,2.682209e-05,0.0006763935,0.0015048981,8.940697e-08,0.008272678,2.3841858e-07
4.7385693e-06,1.4901161e-07,8.34465e-07,0.9999937,5.364418e-07,4.4614077e-05,0.00021207333,0.0,1.9460917e-05,2.9802322e-08
0.98966765,0.0,4.0233135e-06,1.6987324e-06,3.5762787e-07,0.00024089217,0.000838995,0.0018633306,0.00010457635,0.0014820695
0.23540175,2.9802322e-07,0.0003065467,5.3942204e-06,0.0012713373,0.0007458925,0.0012461543,0.0016341209,0.80310184,0.0083679855
0.0,0.00011599064,9.536743e-06,0.8567736,0.99920523,0.0021431744,0.97282916,2.3841858e-07,6.598234e-05,5.3048134e-06
0.9960207,0.0,4.6789646e-06,5.9604645e-07,2.0861626e-07,0.0006265044,0.00096943974,4.1127205e-06,9.3996525e-05,6.121397e-05
0.00020119548,1.2040138e-05,1.2993813e-05,1.8775463e-05,0.0007003844,0.0001513362,0.00506863,2.8431416e-05,0.990594,0.0062510073
0.008151501,2.7120113e-06,0.0032690465,0.0002491176,0.00022020936,0.00044208765,0.0035244226,0.00032263994,0.9867015,0.0006971657
8.994341e-05,3.874302e-07,5.7429075e-05,0.0002564788,2.8908253e-06,0.00042364,0.006897509,1.4334917e-05,0.9987378,0.00018274784
0.00032281876,0.9875221,0.0021543205,0.00066640973,9.012222e-05,0.009401709,0.013471842,5.3346157e-06,0.6520749,0.018273115
5.9723854e-05,3.427267e-06,1.719594e-05,0.9941881,0.00569126,0.0042702854,0.006656885,1.4901161e-07,9.36985e-05,0.0012500286
3.1888485e-06,4.3541193e-05,0.9944414,4.056096e-05,0.0005533397,0.9953892,0.007948518,2.7149916e-05,0.006951481,3.287196e-05
0.23708099,1.0699034e-05,0.0007264018,0.000108003616,9.5665455e-06,0.51931024,0.016326278,0.000987798,0.0002284944,0.005421102
1.692772e-05,4.87864e-05,0.0044537187,5.787611e-05,8.08835e-05,0.99999636,0.0025912523,1.8894672e-05,0.004054308,6.505847e-05
0.98134935,0.0,2.6077032e-05,0.00015491247,4.36306e-05,0.0006464422,0.0010923743,0.0013652444,0.00033941865,0.0026400983
0.0041192174,5.9604645e-08,8.85129e-06,6.6161156e-06,2.3841858e-07,0.00019672513,0.001767993,3.7252903e-05,0.9974575,0.00010049343
0.005420387,2.0861626e-07,0.00010415912,7.1525574e-07,6.854534e-07,0.00013557076,0.0013082325,0.00012880564,0.99314797,0.00041884184
0.0019619465,2.0861626e-07,0.0003849566,1.0937452e-05,7.045269e-05,2.0623207e-05,0.0017953515,0.00042420626,0.99087524,0.0009472966
0.6012364,2.9802322e-07,7.286668e-05,3.0100346e-06,7.748604e-07,0.0010616183,0.0028611422,0.0013477206,0.8075949,0.0013435483
0.0008325875,2.9802322e-08,1.8775463e-06,1.3411045e-06,3.516674e-06,7.304549e-05,0.0005810261,6.854534e-07,0.9985147,0.0002551973
0.0010408163,0.87192357,0.0076939166,0.0012312531,0.001119256,0.01182878,0.06173724,4.87864e-05,0.04041192,0.17753544
2.6226044e-06,2.6196241e-05,0.007813334,0.9999645,0.0034945607,0.00086688995,0.0028572083,2.9802322e-08,0.042237103,1.5467405e-05
0.99341667,0.0,7.5399876e-06,1.1920929e-07,1.9967556e-06,0.0004886389,0.0007316768,8.314848e-06,0.0043037236,0.0002888739
0.0060351193,5.9604645e-08,8.174777e-05,6.854534e-06,2.7626753e-05,0.00074857473,0.000744313,0.0049349964,0.9949329,0.00027123094
0.15327421,2.3841858e-07,0.00016197562,9.1433525e-05,4.87566e-05,0.00073364377,0.0012592375,5.1885843e-05,0.93017054,0.00018829107
3.0696392e-06,0.0058905184,0.019789904,0.00085800886,8.171797e-05,0.10593727,0.36937314,6.777048e-05,0.95565313,0.001987487
0.14697522,9.673834e-05,0.039459974,4.3809414e-06,1.3679266e-05,0.0025176704,0.43971646,4.643202e-05,0.0023963451,0.013187945
0.5327118,4.1127205e-06,3.299117e-05,1.4007092e-06,8.34465e-07,0.0016325116,0.003262937,2.2053719e-06,0.007904112,0.23656014
0.9951153,5.9604645e-08,5.7816505e-06,1.9967556e-06,7.748604e-07,0.000490278,0.0005995929,4.3988228e-05,0.00013127923,0.0004915595
0.94172204,2.0861626e-07,7.548928e-05,6.7949295e-06,2.2351742e-06,0.00067675114,0.0017890632,0.0011293292,0.00086966157,0.032309294
0.98910224,2.9802322e-08,2.3275614e-05,2.0861626e-07,1.4603138e-06,0.00019299984,0.0008380711,0.00029432774,0.0009018779,0.00315544
0.0001603365,0.0048305094,0.9081013,4.836917e-05,5.608797e-05,0.020489365,0.145664,8.3744526e-05,0.0014332831,0.0010765791
0.010554433,6.7055225e-06,0.009112328,1.4692545e-05,1.50203705e-05,0.0003838539,0.0034547448,0.00050488114,0.98161376,0.0025637448
0.00039461255,0.15201372,0.023558378,0.022150457,5.3286552e-05,0.011942357,0.0026227236,0.00013428926,0.17860752,0.24973458
0.9495237,8.940697e-08,6.4969063e-06,5.364418e-07,4.261732e-06,0.00063574314,0.0013644099,9.834766e-07,0.006192118,0.0004120171
0.93989193,8.940697e-08,3.1352043e-05,2.0861626e-06,1.2993813e-05,0.0010268986,0.0010729134,2.5242567e-05,0.031236857,0.014817536
1.2814999e-06,0.21486104,0.37193733,0.99999535,0.009158939,0.006049305,0.047323942,2.9802322e-08,0.004452437,4.142523e-06
4.5508146e-05,0.99915135,0.00065135956,5.197525e-05,0.00014716387,0.0071386397,0.0017271936,0.00010031462,0.34800017,0.004743755
0.000718832,2.0563602e-06,0.000111460686,6.586313e-05,6.920099e-05,9.956956e-05,0.0029176176,1.3500452e-05,0.99719226,0.00080794096
0.9964229,2.9802322e-08,1.013279e-05,1.7881393e-07,1.7881393e-07,0.0008496046,0.0019818246,2.3245811e-06,0.00028261542,0.0012266636
0.00037193298,6.020069e-06,0.000246495,0.0019671023,7.43866e-05,0.0003004372,0.0028539896,0.00020030141,0.9948346,0.00086811185
0.0006606877,8.940697e-08,0.00096297264,1.385808e-05,0.05643049,3.8683414e-05,0.002815634,0.005498737,0.9962763,8.9883804e-05
0.98348176,0.0,8.5532665e-06,4.7683716e-07,1.5795231e-06,0.0003862679,0.0013421774,0.0017700493,0.0024400353,0.0008021891
5.364418e-06,6.7681074e-05,0.0005245805,4.8846006e-05,0.00011995435,0.9996841,0.018943518,1.3649464e-05,0.7937113,0.0001193285
9.447336e-06,0.8206787,0.052708745,0.06047046,0.0050092638,0.98865795,0.023185313,3.385544e-05,0.32193083,0.00044816732
0.011674911,4.8577785e-06,5.8323145e-05,0.95381397,8.34465e-07,0.00025942922,0.0008818805,3.0696392e-06,8.815527e-05,0.003944099
0.9757068,0.0,4.7951937e-05,5.6028366e-06,5.9604645e-08,0.00013849139,0.0014775991,0.0017498732,0.00050237775,0.00059860945
0.02682358,4.3213367e-06,0.00012755394,5.6922436e-06,1.9073486e-06,1.963973e-05,0.0005597472,0.9756221,0.00015735626,0.019794345
0.0034202635,5.364418e-07,0.9233512,0.00022166967,1.385808e-05,7.751584e-05,0.003504932,0.0015996397,0.53452975,0.0005271435
0.581333,2.9802322e-08,1.0818243e-05,8.34465e-07,3.2782555e-06,6.151199e-05,0.0001103878,0.62491834,2.8759241e-05,0.0028930902
0.9945871,2.9802322e-08,2.115965e-06,2.682209e-07,2.2053719e-06,0.00021395087,0.00089102983,1.9490719e-05,0.00013378263,0.002075702
1.3411045e-06,0.04424435,0.00056788325,0.9876976,0.00024452806,0.004154384,0.83285093,4.351139e-06,0.61373776,0.002424121
0.99578136,1.4901161e-07,0.00013077259,6.8843365e-06,1.1026859e-06,0.001292944,0.0034269094,5.4240227e-06,5.441904e-05,0.0009507537
0.40201467,2.2053719e-06,0.0010035634,8.2075596e-05,1.8954277e-05,0.0015469491,0.0024000704,0.0005957782,0.48845777,0.021441132
0.009126157,0.00020119548,1.2010336e-05,1.7881393e-06,2.5331974e-06,0.006828189,0.92674243,9.000301e-06,0.04521221,0.0058202744
1.7881393e-07,1.4126301e-05,0.00030076504,0.9999948,0.0002990067,0.00018912554,0.0023757815,2.9802322e-08,0.0004774332,7.5101852e-06
0.94283974,5.9604645e-08,0.00010588765,2.592802e-06,0.00011506677,0.001093924,0.0020710528,0.00095295906,0.002600193,0.0015731454
0.99869275,0.0,6.854534e-07,8.940697e-08,8.940697e-08,0.00020968914,0.0004056096,2.9802322e-07,3.2931566e-05,0.0003016591
0.0002799034,0.00018778443,0.00059485435,3.7044287e-05,3.749132e-05,0.9991329,0.014877349,4.979968e-05,0.0008004904,0.012645245
1.66893e-05,2.9802322e-07,3.0100346e-05,8.374453e-06,3.6597252e-05,0.00010609627,0.0056833923,0.0019083619,0.98845303,0.001908809
1.0281801e-05,3.5881996e-05,1.5199184e-05,0.00013458729,5.3048134e-06,0.0010452867,0.90920746,0.00020855665,0.9963319,0.00015690923
0.00025993586,4.7683716e-07,7.7188015e-06,2.2053719e-06,2.3841858e-07,0.0004233122,0.0022413135,0.00038936734,0.99816203,0.00012072921
9.095669e-05,0.0008749366,0.9818641,3.2663345e-05,0.0012644529,0.013087064,0.089303255,2.5212765e-05,0.28302675,0.0007574558
0.98372406,1.7881393e-07,7.599592e-06,1.2904406e-05,5.662441e-07,0.0008676052,0.0031137168,1.052022e-05,0.0004942715,0.0043684244
0.00014573336,0.0,3.0696392e-06,0.0,1.4901161e-07,0.0,7.4505806e-07,2.9802322e-08,6.2674284e-05,0.99999785
0.018037915,4.172325e-07,0.001137644,0.0006018281,0.99616116,0.00017178059,0.0039474666,6.765127e-06,3.299117e-05,6.970763e-05
0.95259744,1.7881393e-07,1.3023615e-05,5.9604645e-08,2.9802322e-07,0.0006338954,0.001621306,4.7683716e-07,0.001979798,0.046700895
0.04679686,6.467104e-06,9.214878e-05,2.7179718e-05,8.094311e-05,0.0017347038,0.013255626,0.0007778704,0.018702686,0.36671957
0.9957824,0.0,1.4394522e-05,0.0,5.9604645e-08,0.0005199313,0.000782609,1.1920929e-07,0.0021882057,0.00017893314
1.3679266e-05,5.9604645e-08,0.00065493584,2.6226044e-06,8.85129e-06,2.8699636e-05,0.00010931492,4.4703484e-07,2.3394823e-05,0.99995565
0.00022268295,8.6426735e-07,0.00013783574,4.23193e-06,6.8843365e-06,0.00017532706,0.0064442754,0.0020743012,0.9369004,0.011534095
0.3156466,1.1622906e-06,0.00060787797,0.00071775913,6.8843365e-06,0.00287655,0.006619841,6.252527e-05,0.42543167,0.004107952
0.990399,0.0,2.413988e-06,2.3543835e-06,6.0796738e-06,0.002053529,0.0013000667,1.3113022e-06,0.0021590292,0.00025463104
0.00010460615,2.2530556e-05,1.1026859e-05,6.3955784e-05,5.3346157e-06,0.008559376,0.99036074,1.937151e-05,0.0011889338,0.0007017851
7.4505806e-07,1.9460917e-05,0.001468122,0.00023591518,0.00048545003,0.9999994,0.003739506,3.132224e-05,0.027892739,0.00025492907
5.2005053e-05,1.9073486e-06,1.859665e-05,0.9999231,2.2917986e-05,0.0020851493,0.011232197,2.9802322e-08,0.0007067919,2.7388334e-05
0.9663488,1.4901161e-07,0.00014021993,2.8908253e-06,8.702278e-06,0.0026688874,0.006755978,0.0023147762,0.00014707446,0.0017240345
0.00016096234,1.1622906e-06,4.351139e-06,0.99993813,4.2021275e-06,0.00048205256,0.00087335706,0.0,0.0003568232,1.5974045e-05
4.172325e-07,0.9331067,0.004879862,0.9998759,0.0002924204,0.0029373467,0.004183322,2.0861626e-07,0.07362294,6.070733e-05
0.9841821,0.0,3.2186508e-06,7.1525574e-07,6.4969063e-06,0.00013616681,0.00037384033,0.00034454465,7.5787306e-05,0.005183369
1.31726265e-05,6.67572e-05,0.0025645494,0.0006183386,0.8589902,0.99935126,0.007257074,0.0005899668,0.00014558434,3.4213066e-05
5.00679e-06,3.5762787e-07,8.285046e-06,0.9999968,1.7881393e-07,0.00011077523,0.0004169643,0.0,1.257658e-05,8.940697e-08
0.0001898706,1.0728836e-06,5.2452087e-05,5.930662e-06,8.314848e-06,0.000117093325,0.0013911128,0.005824864,0.99950254,6.824732e-05
0.03196889,8.940697e-07,7.1525574e-06,0.977023,3.4809113e-05,0.0007841885,0.0026302338,4.7683716e-07,0.0031960309,0.0004054606
5.108118e-05,0.0004053712,0.00492391,4.6640635e-05,0.00031334162,6.771088e-05,0.0031326115,1.7881393e-06,0.02191922,0.9159529
3.3080578e-06,1.7881393e-07,4.172325e-07,0.999987,5.9604645e-08,4.2140484e-05,0.00032702088,0.0,8.314848e-06,5.9604645e-08
0.03579381,0.00069510937,0.00046151876,3.3468008e-05,3.3050776e-05,0.01928097,0.7583073,0.002804935,0.56020606,0.0046771467
0.98741883,0.0,9.140372e-05,8.85129e-06,5.751848e-06,0.00048464537,0.00075915456,0.00028580427,0.00016710162,0.00081929564
0.9951185,0.0,5.2154064e-06,4.172325e-07,1.1920929e-06,0.00079751015,0.00043046474,4.0858984e-05,3.296137e-05,0.00014805794
0.36551034,8.940697e-08,0.0013751984,1.9848347e-05,1.3709068e-06,3.6805868e-05,0.002064705,0.13215443,0.02291438,0.00889802
0.00047448277,1.5169382e-05,4.711747e-05,0.0005801916,4.4703484e-07,0.0006610751,0.94427466,0.1584853,5.7518482e-05,0.001093328
2.0861626e-07,3.0696392e-06,4.082918e-06,0.9999745,3.3944845e-05,0.0011723936,0.012117624,0.0,0.87111115,1.5795231e-06
0.0009342432,0.024242073,0.0077908933,0.0001693368,0.00077193975,0.73288214,0.04543984,2.6524067e-05,0.3546232,0.02570942
0.10663679,9.834766e-07,4.6223402e-05,0.00013822317,0.00013509393,0.00061416626,0.004044652,4.658103e-05,0.7988691,0.040516973
1.9669533e-06,0.0006516278,0.16726843,0.0010783374,5.093217e-05,0.00036785007,0.8845216,3.477931e-05,0.97979224,0.00087457895
0.14445856,0.0,4.810095e-05,2.682209e-07,5.662441e-07,1.347065e-05,0.000133425,0.9805871,5.0604343e-05,8.073449e-05
0.00069591403,2.6524067e-06,0.0015502274,0.00072932243,0.00049343705,0.000166893,0.003635466,0.00014930964,0.9871251,0.0032009184
0.9224788,0.0,0.00033801794,0.00016129017,1.8239021e-05,0.00017547607,0.001093179,0.05292496,0.00016891956,0.009533644
0.9782202,1.1920929e-07,1.7762184e-05,6.556511e-07,5.3942204e-06,0.0008921623,0.0027802587,1.0222197e-05,0.01050669,0.0031523705
0.003235221,1.4901161e-07,0.99476576,1.8179417e-06,2.7120113e-06,0.000315845,0.002192229,8.34465e-07,0.017883956,6.854534e-05
0.9919642,0.0,3.33786e-06,2.3245811e-06,1.013279e-06,0.0002643168,0.0006362796,0.0003505051,0.00037240982,0.001755029
2.759695e-05,1.4603138e-06,2.4586916e-05,0.0005952418,0.00015258789,0.00018820167,0.0031261742,0.011299312,0.9983957,0.0009613037
0.091293275,4.172325e-07,0.00012502074,3.0100346e-06,1.3381243e-05,0.0010370314,0.0011984408,0.0005583763,0.8588091,0.003870815
0.95128554,2.0861626e-07,0.00012362003,7.0631504e-05,4.1484833e-05,0.0017362535,0.003663838,5.90086e-06,0.0006836653,0.0015280247
0.080171585,1.7881393e-07,1.6897917e-05,6.8843365e-06,0.0001192987,0.0002796948,0.0017696023,9.23872e-07,0.9101823,0.0054005682
0.08061299,3.874302e-07,3.8713217e-05,1.2218952e-06,1.347065e-05,0.000156492,0.0007162392,3.6895275e-05,0.9573113,0.0023742318
8.583069e-06,9.23872e-07,0.9947963,0.00021022558,0.00029492378,0.0005824268,0.023373902,5.6266785e-05,0.013069004,0.01816371
0.0026520789,4.7683716e-07,9.340048e-05,2.9563904e-05,0.0038508177,0.0034552813,0.0075396597,0.00042152405,0.97987556,0.0001295805
0.0013657808,0.0001347661,0.008382112,0.00034359097,0.5409895,0.00067561865,0.07789412,0.00068333745,0.0586603,0.12692076
0.09964457,1.7881393e-07,2.0384789e-05,7.390976e-06,6.556511e-06,0.00025945902,0.0010805726,3.33786e-06,0.9477103,0.0010222793
0.0008485913,8.940697e-08,7.480383e-06,1.4007092e-06,4.798174e-06,0.00014102459,0.00047266483,1.2218952e-06,0.9985391,0.00012168288
0.9895462,5.9604645e-08,1.1861324e-05,2.95043e-06,6.2286854e-06,0.0011096299,0.0031586885,7.611513e-05,0.0004132986,0.0021971464
0.0030309558,2.0861626e-06,1.0728836e-05,8.374453e-06,0.00014805794,0.00040143728,0.0041249394,9.6559525e-05,0.992634,0.0005617142
5.364418e-07,0.00027397275,0.17974204,0.00044113398,0.005125791,0.9997009,0.0062915385,0.00050598383,0.8969348,1.579523e-05
0.59608537,6.854534e-07,4.917383e-06,7.9602e-05,3.993511e-06,0.0024648309,0.0066191256,5.4627657e-05,0.5530945,0.010170281
0.87466323,0.0,2.7120113e-06,1.3709068e-06,2.9802322e-08,0.00033217669,0.0005027354,9.11355e-05,0.20764449,0.00065505505
0.9717194,5.9604645e-08,3.8146973e-05,3.516674e-06,8.493662e-06,0.0012162924,0.0014537573,1.3321638e-05,0.0039201975,0.0016354918
0.000282377,2.0861626e-07,5.981326e-05,1.2397766e-05,3.993511e-06,0.00016865134,0.0015376806,3.245473e-05,0.9988081,0.00018116832
0.00049349666,0.0,0.99985117,1.3113022e-06,3.1888485e-06,0.00018617511,0.0036230087,2.1338463e-05,0.00033301115,2.2411346e-05
0.99121237,0.0,3.4719706e-05,5.841255e-06,2.5391579e-05,0.0019346476,0.0015135407,5.5134296e-06,0.00032514334,0.000467211
0.9230274,2.3841858e-07,0.00037810206,4.9471855e-06,2.1547079e-05,0.0005429983,0.0012280941,2.6285648e-05,0.0017760396,0.009787381
0.9746166,0.0,3.784895e-06,3.2782555e-07,1.5199184e-06,3.582239e-05,0.00019988418,0.017558604,9.775162e-06,0.0043555796
5.9604645e-07,0.0035120547,0.91223145,0.00050243735,0.0003912449,0.9445976,0.040921718,3.1083822e-05,0.9477938,2.8401613e-05
0.98045707,8.940697e-08,0.0001591444,4.3213367e-06,5.096197e-06,0.00037008524,0.0019405484,0.0005158484,0.0016904175,0.0006272793
2.8312206e-06,0.96540403,0.00040769577,0.00023454428,7.867813e-06,0.008197218,0.014996916,1.0609627e-05,0.9909992,0.0024239123
0.00016888976,0.99671066,0.0058957934,0.001868546,0.00125435,0.32499534,0.006020695,0.0033067763,0.15668878,0.04710546
0.4622188,1.4901161e-07,6.943941e-06,2.4735928e-06,6.854534e-07,0.00076538324,0.0017599463,1.1056662e-05,0.63633764,0.0009792149
1.7881393e-07,1.1920929e-07,8.484721e-05,0.99997765,0.8708325,0.00013932586,0.00095537305,0.0,6.172061e-05,3.5762787e-07
0.92707133,2.9802322e-08,0.0012435019,1.090765e-05,3.695488e-06,0.0013027489,0.002711445,4.965067e-05,0.09324083,0.00034844875
0.015443414,2.682209e-07,9.804964e-06,4.261732e-06,5.662441e-07,0.00015765429,0.0034579933,3.3199787e-05,0.9873147,0.000757128
0.0016447604,0.00023892522,2.8401613e-05,7.6293945e-06,7.4505806e-07,0.002837181,0.9849015,0.00052034855,0.0034904778,0.0011724532
1.180172e-05,8.940697e-08,8.046627e-07,0.9999913,1.7881393e-07,6.5118074e-05,0.000325799,0.0,3.71933e-05,2.3841858e-07
2.9832125e-05,1.9818544e-05,3.1888485e-06,7.4476004e-05,4.5001507e-06,0.0041584074,0.99135804,0.0007814467,0.0014590025,0.0022539198
0.88961685,1.1920929e-07,3.0219555e-05,7.4505806e-07,5.2452087e-06,0.00026094913,0.00094115734,0.0005733669,0.1204164,0.004751742
0.9249034,8.940697e-08,0.0014688075,2.4527311e-05,1.4424324e-05,0.00021544099,0.00083369017,0.053671718,3.8176775e-05,0.00059464574
1.1920929e-07,4.4047832e-05,0.0024231672,0.0015991628,0.0046979785,0.9999977,0.004226744,0.00086036325,0.0013833046,0.0006376207
0.00022438169,2.3841858e-07,1.4901161e-06,1.2814999e-06,5.662441e-07,8.589029e-05,0.00040706992,1.0877848e-05,0.9986668,0.00030103326
1.0699034e-05,0.00060361624,0.076473504,0.9422804,8.5383654e-05,0.0005016625,0.009901404,3.5762787e-07,0.9732835,0.00014898181
0.48924765,3.2782555e-07,6.0498714e-06,4.8577785e-06,1.0460615e-05,0.0004608631,0.0015462637,1.04904175e-05,0.31176668,0.100330085
2.2292137e-05,0.0780828,8.8095665e-05,0.004105985,4.0620565e-05,0.009729058,0.7659575,3.7252903e-06,0.91460997,0.010707557
0.9902375,8.940697e-08,0.0002156496,4.529953e-06,1.2516975e-06,0.00036469102,0.0013862252,3.2395124e-05,1.090765e-05,0.00083971024
0.9867846,0.0,1.5288591e-05,7.599592e-05,4.3809414e-06,0.0003388524,0.00055491924,0.0011604726,0.0001232326,0.0013527572
6.7055225e-06,1.7881393e-07,1.9967556e-06,0.9999923,1.2993813e-05,0.0006094277,0.0010831058,0.0,0.00057309866,3.874302e-07
0.99570537,0.0,2.9206276e-06,2.0861626e-07,6.556511e-07,0.0011556745,0.0021387339,4.1782856e-05,5.888939e-05,0.00021278858
0.04954657,7.6413155e-05,0.0049028695,0.00011229515,6.2286854e-06,0.002149731,0.040143013,1.6570091e-05,0.55557805,0.056962073
0.068036765,1.7881393e-07,0.00013789535,5.3077936e-05,1.758337e-05,0.00010827184,0.0015182197,0.9606147,0.020172536,0.00049495697
5.543232e-05,2.3841858e-07,1.0699034e-05,9.393692e-05,2.0861626e-06,7.930398e-05,0.00054207444,4.133582e-05,0.99981165,3.412366e-05
3.6984682e-05,1.1920929e-07,7.748604e-07,0.99997616,3.5762787e-07,0.00022885203,0.00029870868,0.0,0.00030735135,2.0861626e-07
8.5413456e-05,0.98235965,0.005923271,0.0018472672,0.8645546,0.014461577,0.01396358,1.347065e-05,0.00668779,0.00064221025
1.5437603e-05,1.707673e-05,0.0070643127,4.568696e-05,5.2452087e-06,0.00046783686,0.009608388,1.3411045e-06,0.003871113,0.9987911
0.0001423657,2.3841858e-07,1.2665987e-05,0.99991894,0.00044691563,0.0005354285,0.0006994307,1.1920929e-07,0.00030991435,3.993511e-06
1.4603138e-05,4.172325e-07,1.731515e-05,0.99999416,9.086728e-05,0.0007548034,0.0008202195,0.0,0.0025538802,6.2584877e-07
0.0037728548,1.4901161e-07,1.9609928e-05,1.013279e-06,8.6426735e-07,0.00012558699,0.0010227263,4.3600798e-05,0.99435425,0.00012883544
0.9606803,8.940697e-08,5.1259995e-06,2.2351742e-06,1.3709068e-06,0.0007135272,0.0018901825,4.9203634e-05,0.09884998,0.0021741092
0.9949564,0.0,8.225441e-06,6.2584877e-07,9.23872e-07,0.0002593696,0.00052276254,0.000602901,6.118417e-05,0.0006348491
5.5760145e-05,8.478761e-05,0.00050249696,0.0020368993,5.507469e-05,0.0001577735,0.8461207,0.093412966,0.00014197826,0.022084594
0.08005062,4.7683716e-07,0.00018969178,2.5063753e-05,2.977252e-05,0.00023788214,0.0026414692,6.2555075e-05,0.8870158,0.004585743
0.99290156,0.0,1.2516975e-06,0.0,8.6426735e-07,0.00016373396,0.00026074052,7.748604e-07,0.00011304021,0.013853848
0.9854517,8.940697e-08,6.8992376e-05,3.6746264e-05,1.1473894e-05,0.0010376871,0.0017910898,2.2649765e-05,0.00036597252,0.0016620755
7.0899725e-05,9.23872e-07,0.00053218007,8.431077e-05,6.940961e-05,0.00014945865,0.00082170963,0.9799249,0.002238065,0.02669558
0.9588072,1.1920929e-07,0.0008497834,1.5288591e-05,2.3841858e-06,0.0023534894,0.005675912,0.00056922436,0.003162086,0.001904875
0.34154582,0.0,1.22487545e-05,4.887581e-06,5.364418e-07,6.771088e-05,0.0003015697,0.8277472,0.00032389164,0.0005258024
5.453825e-06,1.4901161e-07,0.99544096,3.784895e-06,5.77271e-05,9.9122524e-05,0.0043483675,1.1086464e-05,0.98947096,4.580617e-05
1.8179417e-05,0.0,0.99986583,1.1920929e-06,2.2470951e-05,4.029274e-05,0.0039108098,4.9471855e-05,0.27526343,2.7120113e-06
0.9807445,8.940697e-08,0.0039224923,9.357929e-06,4.917383e-06,0.00014090538,0.00062420964,8.490682e-05,2.5480986e-05,0.0012075305
2.9802322e-07,1.218915e-05,0.0018689334,0.00021067262,8.6933374e-05,0.9999999,0.005210191,3.3974648e-06,0.002604723,2.3424625e-05
0.35699236,7.4505806e-07,0.00043854117,2.4437904e-06,4.172325e-07,1.7940998e-05,0.0004476905,0.00014308095,6.017089e-05,0.43961263
0.9622508,1.1920929e-07,5.477667e-05,3.606081e-06,6.854534e-06,0.0008585751,0.0008085072,0.0012000203,0.00015094876,0.0015311241
0.0005132556,0.00330171,0.7594071,0.0074430704,0.0022166371,0.009137362,0.04312712,6.5267086e-06,0.13816467,0.11153084
3.7014484e-05,8.6426735e-07,0.9733441,0.00879249,0.0006506145,0.0011334717,0.011586994,0.1953991,0.0019066632,0.014528036
1.4901161e-07,0.034190625,0.00034415722,0.99998754,0.058245808,0.01856488,0.16445589,2.9802322e-08,0.008305699,1.7017126e-05
0.0,1.0699034e-05,0.0020138025,0.9999368,2.3961067e-05,7.945299e-05,0.00061273575,0.0,0.0014191568,0.00013485551
2.5510788e-05,0.011261612,2.30968e-05,0.0012582839,0.0,0.000795722,0.00066280365,0.0006617904,0.011110574,0.59488064
1.8179417e-06,1.0609627e-05,0.68095934,0.9994594,1.1920929e-07,0.0016010404,0.0029563308,5.9604645e-08,0.000302881,4.917383e-06
0.9939009,2.9802322e-08,0.00019308925,7.8082085e-06,2.3841858e-07,0.00022643805,0.0023674667,9.804964e-06,2.9206276e-05,0.0006174743
0.22148308,8.940697e-08,2.7626753e-05,1.2665987e-05,0.4442078,0.0011909902,0.0015100837,6.3180923e-06,0.16807836,0.0011947453
1.1384487e-05,0.6327939,0.00035750866,0.00032159686,0.00027671456,0.0038218796,0.025233299,7.033348e-06,0.989465,0.0044736266
0.00041300058,3.874302e-07,2.3245811e-06,5.4240227e-06,1.2516975e-06,0.0002488792,0.0006469786,9.298325e-06,0.99839413,0.00020864606
0.9860897,2.9802322e-08,0.00010019541,2.5004148e-05,1.7493963e-05,0.00016230345,0.0007868409,0.0026517212,3.0845404e-05,0.0017543733
0.97555304,1.1920929e-07,2.9802322e-05,5.453825e-06,5.096197e-06,0.0019032657,0.001034528,1.937151e-06,0.0011866689,0.005930543
3.5762787e-07,0.000916034,0.00012591481,0.99997115,0.00016647577,0.00076809525,0.008334577,1.4901161e-07,0.98515564,2.2649765e-06
0.84125185,2.682209e-07,0.00037172437,1.513958e-05,6.0498714e-06,0.0011974573,0.004970491,0.0001180172,0.27061224,0.01166749
0.00015768409,2.0861626e-07,0.9992224,0.015491366,2.2441149e-05,0.0007805526,0.010910213,0.0002220571,0.0001796484,2.9742718e-05
0.00021097064,4.7683716e-07,0.99728775,0.0011257529,4.9591064e-05,0.00198704,0.009567291,1.32620335e-05,0.1884987,0.0006479323
0.944919,2.9802322e-08,0.0005891025,1.7851591e-05,1.8775463e-06,0.00044366717,0.0018542111,9.357929e-06,0.023765028,0.0014593005
0.015995473,8.940697e-08,0.0005982518,8.34465e-07,1.1175871e-05,0.00021103024,0.00086453557,0.00031006336,0.991101,0.00022938848
0.19851875,0.00011000037,0.74667794,9.119511e-06,1.4811754e-05,0.0023911595,0.07089192,4.3660402e-05,0.00022539496,0.00078317523
7.894635e-05,0.9962378,0.00039827824,0.0016564727,0.00038415194,0.0065623224,0.0046654344,2.592802e-06,0.30543035,0.011320889
0.98562586,4.7683716e-07,0.0004183054,1.40070915e-05,1.758337e-06,0.00115484,0.0030555725,1.40070915e-05,0.0007763207,0.0022188425
0.9955808,0.0,6.9737434e-06,1.3411045e-06,8.940697e-08,0.00058856606,0.0024840832,1.7881393e-07,0.00013461709,0.00056642294
0.027924955,2.9802322e-07,0.8368254,1.21593475e-05,3.7282705e-05,0.0005839169,0.0070212483,6.490946e-05,0.2738536,0.00044193864
9.23872e-07,2.8908253e-06,3.0100346e-06,0.99998987,5.4866076e-05,0.00055891275,0.0013687611,0.0,0.21001202,1.3709068e-06
0.3307144,4.7683716e-07,0.00012227893,5.066395e-07,1.1920929e-07,0.0003489256,0.0016273856,0.0002335906,0.7196241,0.0015115142
0.4413113,8.940697e-08,4.0590763e-05,3.2782555e-07,1.847744e-06,0.0008133352,0.0024279356,0.00037890673,0.5956498,0.0009448528
5.1170588e-05,0.99015296,0.0020964444,0.0020197332,3.886223e-05,0.027962595,0.0033373833,4.0233135e-06,0.5657396,0.0120579
7.748604e-07,8.6426735e-07,1.6570091e-05,0.9999956,2.4437904e-06,0.00037923455,0.0028575659,0.0,0.00034588575,2.3841858e-07
0.9904778,0.0,1.4781952e-05,8.940697e-08,2.3841858e-07,4.4375658e-05,0.00023567677,0.0002616346,1.4036894e-05,0.00049072504
0.9918017,0.0,4.2885542e-05,1.013279e-06,7.1525574e-07,0.00090149045,0.0015302002,0.00013706088,0.00014671683,0.000718385
0.98633146,5.9604645e-08,7.897615e-06,1.758337e-06,5.5730343e-06,0.0004490912,0.0025956333,2.1219254e-05,3.7908554e-05,0.0005386472
0.020581216,2.115965e-06,1.6093254e-05,3.7133694e-05,1.4901161e-07,0.0007659793,0.009662926,9.536743e-06,0.03378904,0.7276388
1.6987324e-06,0.99163175,0.00027030706,0.0047699213,5.441904e-05,0.0025201738,0.0013138652,9.357929e-06,0.98751056,0.0004965365
8.136034e-06,0.0003682673,0.0034329891,0.00018873811,6.3329935e-05,0.9999887,0.02192691,9.903312e-05,0.13163322,0.00045463443
0.9965059,0.0,1.4007092e-06,0.0,1.4901161e-07,0.00047898293,0.00048685074,2.0861626e-07,0.0020080805,0.00033390522
1.6123056e-05,0.0008497238,0.7327632,0.00010678172,0.00052165985,0.0052599013,0.44855648,0.00010377169,0.005529523,0.07250783
0.010509908,1.41859055e-05,0.0008779466,2.8908253e-05,1.5348196e-05,0.000530988,0.0018040836,0.00041234493,0.00066408515,0.92276275
4.8696995e-05,5.9604645e-08,0.020411193,1.1771917e-05,0.85694194,6.043911e-05,0.0021191537,0.0003312528,0.9972705,3.656745e-05
0.00048568845,4.7028065e-05,0.000978291,8.821487e-06,2.9563904e-05,0.99995756,0.011366963,7.033348e-06,0.0044513047,9.924173e-05
0.95056653,2.026558e-06,0.000106960535,1.6003847e-05,1.92523e-05,0.0012701154,0.004640758,6.556511e-06,0.03363657,0.0051642656
0.94383526,2.682209e-07,1.6987324e-05,1.7881393e-07,5.662441e-07,0.00014078617,0.0010669827,3.772974e-05,3.5077333e-05,0.2024608
0.00013819337,0.99442333,0.0013014376,0.00033965707,5.1528215e-05,0.00759393,0.006567836,3.963709e-06,0.014992684,0.010609001
0.9943536,0.0,8.255243e-06,2.8312206e-06,2.861023e-06,0.0010146797,0.00911954,2.6106834e-05,6.16312e-05,5.9723854e-05
0.0056989193,1.4901161e-07,0.001388669,3.2812357e-05,1.0609627e-05,0.00016522408,0.0011603832,0.00033858418,0.9876842,0.00033029914
0.00016233325,0.00024208426,0.0020320117,5.7309866e-05,2.05338e-05,0.0043771863,0.7226094,0.00025829673,0.4868682,0.011860669
0.9939338,0.0,6.1690807e-06,1.3411045e-06,3.7252903e-06,0.00028330088,0.0005028546,0.00031805038,0.0002758503,0.00034075975
0.00020503998,5.170703e-05,0.004840702,2.0712614e-05,1.7732382e-05,0.99995273,0.0074907243,1.23381615e-05,0.07240984,0.0001758039
0.11263949,4.172325e-07,0.97462994,3.9041042e-06,1.4513731e-05,0.0003478527,0.0036475062,0.00095030665,8.878112e-05,0.0031200945
1.3560057e-05,6.2584877e-07,1.0073185e-05,0.99999464,2.682209e-07,0.0010395646,0.0035665631,0.0,0.0030518472,2.0563602e-06
0.07955289,5.2154064e-06,0.0013244152,0.00068745017,4.976988e-06,0.00022178888,0.004812926,0.004391134,0.0018828809,0.95391816
0.490672,8.940697e-08,4.7385693e-06,7.4505806e-07,2.771616e-06,0.0005708337,0.0010996461,4.1216612e-05,0.87685436,0.00023287535
0.034759343,3.5762787e-05,8.046627e-06,0.00010186434,0.000520885,0.0039799213,0.85935634,3.3974648e-06,0.00011205673,0.009637237
0.039702,2.9802322e-08,4.887581e-06,2.8908253e-06,7.033348e-06,0.0005927384,0.0014327466,0.00021663308,0.97540104,0.00033265352
9.030104e-06,0.99781215,0.00013780594,0.00032418966,5.6922436e-05,0.0033391416,0.0009836555,5.364418e-07,0.041011214,0.017627448
0.9964304,0.0,8.791685e-06,2.95043e-06,6.2584877e-07,0.0016491711,0.001139462,8.940697e-07,0.0001450181,0.0001579225
0.2629672,7.778406e-06,0.0001141727,1.707673e-05,7.987022e-06,0.0004876852,0.0024813414,2.002716e-05,0.5549175,0.07174522
0.971563,8.940697e-08,7.4505806e-06,7.3611736e-06,1.1026859e-06,0.0012482107,0.0025197864,0.00037440658,0.0016680956,0.023403078
0.30326325,2.682209e-07,0.94859886,3.1292439e-06,1.4603138e-05,0.0006314516,0.004011363,0.00016087294,4.1246414e-05,0.00072288513
0.7324435,2.0861626e-07,3.787875e-05,1.001358e-05,0.099499285,0.00047442317,0.0012402833,5.1110983e-05,0.00010687113,0.019786417
0.9815934,0.0,4.6283007e-05,2.95043e-06,2.6226044e-06,0.00018396974,0.0007827282,0.014002204,2.6851892e-05,0.0005890727
0.01119262,5.465746e-05,0.0006247759,0.0005456507,0.0033828914,0.016326964,0.4336781,0.00020831823,0.00016519427,0.123244345
0.7037418,1.9073486e-06,0.66566074,1.0043383e-05,1.8268824e-05,0.00063827634,0.0034673214,0.0005913079,0.00044101477,0.00589177
0.5816177,0.0,6.1690807e-06,0.0,0.0,8.6426735e-06,0.000103622675,0.58663553,5.9604645e-06,0.0004066527
2.3841858e-07,4.8577785e-06,5.6564808e-05,2.2947788e-05,5.90086e-06,0.9999899,0.002804041,4.74751e-05,0.8970324,5.5730343e-06
4.053116e-06,2.026558e-06,4.0233135e-05,0.99999404,1.1175871e-05,0.00015795231,0.0010884404,0.0,2.297759e-05,6.2584877e-07
0.009061456,9.834766e-07,5.143881e-05,4.440546e-06,1.92523e-05,0.00030481815,0.0012374222,0.00015765429,0.98728573,0.0022523403
0.99500823,2.9802322e-08,3.606081e-05,1.2516975e-06,4.7683716e-07,0.0007914901,0.0025743544,8.165836e-06,0.00036281347,0.002866745
7.05421e-05,5.9604645e-08,0.99739194,0.00020113587,0.0056604445,0.00094273686,0.006760478,3.1888485e-06,0.00027796626,9.071827e-05
0.0,0.0018474162,0.66770035,0.9998928,2.4735928e-06,0.007129252,0.26266292,2.9802322e-08,0.000109136105,1.7881393e-07
0.9850445,0.0,2.5093555e-05,5.9604645e-07,1.8149614e-05,0.00045013428,0.00076663494,7.5399876e-06,0.0014543831,0.030822515
0.0007674992,8.34465e-07,0.004230082,0.00035357475,6.80387e-05,4.887581e-05,0.0025008619,0.0054736733,0.9872561,0.0004911423
0.0001424551,9.357929e-06,3.3676624e-06,4.4703484e-06,1.1920929e-07,0.0084549785,0.9907052,2.2053719e-06,9.62615e-05,0.0006555319
0.0003668368,1.1026859e-06,0.9870798,0.0008355379,0.0007838309,0.0002667606,0.01971364,2.7388334e-05,0.23311943,0.00380826
0.008155197,0.0,0.0001308024,1.7881393e-07,2.115965e-06,3.787875e-05,0.000603199,6.1929226e-05,0.9913207,9.787083e-05
1.0550022e-05,0.89715004,0.08340824,0.0022155344,0.057696223,0.857061,0.042247236,0.00014314055,0.14413768,0.0020925105
4.7683716e-07,9.23872e-07,4.413724e-05,0.9999372,0.017729133,0.0019800663,0.04533276,0.0,4.735589e-05,1.9729137e-05
0.0,0.9889043,0.007736683,0.9999204,5.9515238e-05,0.017454892,0.023371905,8.940697e-08,0.023123235,2.8014183e-05
0.7776562,4.172325e-07,0.00024068356,1.8686056e-05,2.2649765e-06,0.0017356873,0.004713714,0.008799553,0.25765616,0.0020076036
8.457899e-05,0.00018239021,0.0028627813,0.0004647076,0.00062933564,0.99992156,0.0060760677,0.00487411,0.007485509,0.0001898706
0.9688541,8.940697e-08,0.00012153387,2.1576881e-05,5.77271e-05,0.00047531724,0.0012389421,0.0020496547,0.0007778108,0.013201147
1.1563301e-05,0.002171427,0.9678093,0.0052073,0.020365477,0.9958544,0.013864487,0.0023773015,0.030270427,0.00026461482
0.14569569,1.1920929e-07,9.265542e-05,5.930662e-06,1.4603138e-06,0.0011086166,0.003841281,0.009149522,0.9486284,0.00019001961
0.0,1.1622906e-06,4.708767e-05,0.99997985,0.7274848,8.0406666e-05,0.0015031993,2.9802322e-07,4.87864e-05,5.2452087e-06
0.00019219518,2.9802322e-07,1.1175871e-05,1.13248825e-05,4.5895576e-06,0.0002463758,0.0006456971,7.0780516e-05,0.99963933,5.3942204e-05
0.915782,2.9802322e-08,3.862381e-05,0.0001771152,7.1793795e-05,0.00046250224,0.0005841851,0.003700614,0.00079885125,0.006365627
2.2947788e-06,1.1026859e-06,3.3199787e-05,0.99999464,0.0038669407,0.0003796816,0.0011008978,0.0,0.015783846,1.0430813e-06
0.9593785,1.4901161e-07,8.395314e-05,9.062886e-05,1.6391277e-06,0.0022303164,0.0025735497,7.033348e-06,0.021727383,0.00985074
0.00014996529,5.9604645e-08,2.0861626e-07,0.0,7.4505806e-07,0.0,7.4505806e-06,1.7285347e-06,6.109476e-06,0.99999833
2.9802322e-08,0.000169456,6.2584877e-07,0.99996114,1.001358e-05,0.0003850162,0.97991157,2.9802322e-07,4.3153763e-05,1.3411045e-06
2.3841858e-07,6.020069e-06,0.00066387653,0.0011477768,0.109223515,0.9999987,0.0016462505,8.0645084e-05,0.00014600158,6.893277e-05
0.9815067,1.1920929e-07,1.0758638e-05,6.6161156e-06,9.089708e-06,0.0028314292,0.002314508,0.0001553297,2.0861626e-05,0.0031355917
0.00014594197,0.0,1.1920929e-07,0.0,2.9802322e-08,0.0,1.2814999e-06,1.4901161e-07,2.7000904e-05,0.9999987
0.04177791,1.4603138e-06,0.00012370944,5.841255e-06,9.098649e-05,0.00040125847,0.008943558,0.0008817017,0.96807134,0.0013309717
0.0012128055,2.0861626e-07,1.3709068e-06,2.3633242e-05,1.1086464e-05,0.00013270974,0.0012287498,3.9041042e-06,0.99660337,0.0007995069
0.091025084,2.9802322e-08,4.3213367e-06,1.3709068e-06,2.9802322e-08,6.651878e-05,0.00021871924,5.403161e-05,0.8229935,0.007142931
0.0069157183,0.0008907318,0.0004775524,1.9311905e-05,0.0001309216,0.010162562,0.765399,4.7683716e-05,0.0008792281,0.004981041
0.10681763,8.940697e-08,0.00017502904,1.770258e-05,2.759695e-05,0.0001476407,0.0081187785,0.7156373,0.0070893764,0.011198163
0.08194381,0.000112742186,0.3027072,2.4050474e-05,2.6911497e-05,0.0014069974,0.00095668435,0.007545471,0.0001539886,0.15861061
0.001552105,1.4901161e-07,4.708767e-06,3.33786e-06,1.1920929e-07,0.00022515655,0.0014772117,5.453825e-06,0.99699533,0.00022360682
0.00012814999,0.98610264,0.0002297461,0.00014659762,1.0073185e-05,0.0020627677,0.04567319,1.9967556e-05,0.0017825365,0.004818082
3.1590462e-06,0.00025743246,0.009298354,0.99990946,0.017265558,0.0003361702,0.0014028847,0.0,0.09730491,0.0006785691
0.0009456873,0.0011343062,0.00025975704,3.4570694e-05,1.0728836e-06,0.00015693903,0.00040197372,9.834766e-07,0.0033824444,0.9413056
0.16163099,0.0,0.0001193881,3.2782555e-07,4.7683716e-07,7.4207783e-06,0.00015372038,0.9847475,1.707673e-05,0.00028899312
3.5762787e-07,3.9041042e-06,1.8060207e-05,0.9999923,0.00070753694,0.0008893311,0.0020635724,0.0,0.15656298,1.013279e-06
0.93262625,5.364418e-07,0.00023573637,5.4240227e-06,3.874302e-07,0.000464648,0.0013321638,7.57277e-05,0.014871389,0.0021120608
0.9905677,0.0,0.00016143918,5.7697296e-05,1.1622906e-06,0.0021500885,0.0015096366,2.5719404e-05,0.0002541244,0.00018906593
0.9879746,8.940697e-08,3.5375357e-05,2.7418137e-06,3.5762787e-07,0.000844121,0.0021572113,0.000118523836,0.00042250752,0.0029570758
0.95191014,5.9604645e-08,3.5464764e-05,1.1920929e-07,1.4901161e-07,0.0008084476,0.0017333925,3.132224e-05,0.08699986,0.0062790215
1.7732382e-05,0.0018350184,0.47130463,0.0012356639,0.7159195,0.8569379,0.023395032,0.0010798573,0.9524956,5.7429075e-05
4.890561e-05,8.612871e-06,0.0018548071,1.3709068e-05,0.00013375282,0.99999124,0.0067833364,0.00038206577,0.001072675,1.7672777e-05
0.9832252,1.7881393e-07,1.22487545e-05,3.3974648e-05,2.6583672e-05,0.0007406771,0.0016773641,2.670288e-05,0.0021507442,0.018959343
0.6999962,3.5762787e-07,7.5519085e-05,1.2457371e-05,2.0861626e-06,0.00022867322,0.000770092,7.390976e-05,0.00011822581,0.498568
0.9965042,2.9802322e-08,3.963709e-06,4.172325e-07,2.3841858e-07,0.0002477765,0.0009672642,8.136034e-05,1.5348196e-05,0.0009730756
0.00014573336,0.0,3.0696392e-06,0.0,1.4901161e-07,0.0,7.4505806e-07,2.9802322e-08,6.2674284e-05,0.99999785
0.00014144182,0.00031331182,0.12879974,0.00025996566,6.5892935e-05,0.0014153123,0.20138294,8.189678e-05,0.9872507,0.0007238984
0.036773473,1.1026859e-06,0.9116883,6.529689e-05,1.2010336e-05,0.0034042,0.008472592,2.2292137e-05,0.001956433,0.009098619
0.09888542,6.681681e-05,3.6984682e-05,9.208918e-06,1.1622906e-06,0.0068708956,0.30193916,6.425381e-05,0.47132176,0.0036363006
0.0005584359,0.0,8.556247e-05,6.7323446e-05,0.7753625,0.7423564,0.001142174,1.5467405e-05,0.00043526292,2.0563602e-05
0.1884493,3.874302e-07,0.00010883808,4.887581e-05,1.0728836e-06,4.374981e-05,0.0009983778,0.20348221,0.03060022,0.11882332
9.8615885e-05,1.5795231e-06,3.9339066e-06,0.9999635,4.7385693e-06,0.0014967024,0.0021190047,0.0,0.0016546547,1.3113022e-06
4.61936e-06,4.172325e-07,0.032310426,6.824732e-06,0.026857466,2.4318695e-05,0.0064269006,0.0021515489,0.9908754,0.001795888
0.99523294,0.0,4.440546e-06,8.940697e-08,2.9802322e-08,0.00036355853,0.0005031824,2.5629997e-06,0.0012611151,0.0008068085
0.21657601,7.748604e-07,0.000908196,4.2915344e-05,2.6851892e-05,0.0017150044,0.009328902,0.18927154,0.073996276,0.0063394904
0.9613416,0.0,4.1127205e-06,2.95043e-06,6.2584877e-07,0.0015312433,0.001598537,2.2053719e-06,0.018268675,0.0010381043
0.00029325485,1.1920929e-07,3.787875e-05,4.3213367e-06,0.00021880865,7.1555376e-05,0.0010956228,1.8894672e-05,0.9989954,9.75728e-05
6.854534e-07,0.9973619,5.915761e-05,0.0008713901,6.330013e-05,0.001652807,0.00096714497,5.662441e-07,0.9746903,0.00025004148
0.99218863,1.4901161e-07,8.940697e-06,8.314848e-06,1.0937452e-05,0.00068721175,0.0008047819,1.22487545e-05,0.00019556284,0.007325113
0.22707802,6.2584877e-07,0.8985472,1.3917685e-05,4.3809414e-06,0.00018543005,0.0046437085,6.0081482e-05,0.009764761,0.0063350797
2.3841858e-07,9.545684e-05,6.347895e-05,0.9999118,0.0005944669,0.0032351017,0.068045944,3.5762787e-07,0.8458376,6.2286854e-06
0.97909915,0.0,4.646182e-05,2.4437904e-06,2.5629997e-06,0.00022166967,0.00048342347,0.0064406693,3.4719706e-05,0.0003912747
0.00023800135,2.9802322e-08,0.9989577,0.00010353327,3.0219555e-05,0.0011334717,0.0069270134,1.3560057e-05,0.09548432,0.00018805265
0.0013150871,0.00069990754,0.006016016,0.00029480457,3.862381e-05,0.006747782,0.96685266,0.00011885166,0.06177926,0.008236021
6.571412e-05,0.00039842725,0.00044107437,5.90384e-05,1.7881393e-07,0.00021073222,0.010134846,9.804964e-06,0.0066282153,0.99044085
0.9932611,8.940697e-08,7.390976e-06,4.7683716e-07,1.5199184e-06,0.00050392747,0.002729863,1.3440847e-05,0.0011880398,0.000523597
0.06427103,7.4505806e-07,0.0043908954,4.2885542e-05,3.629923e-05,0.7212042,0.004751593,8.571148e-05,0.001146555,0.0007813871
0.0,0.89991057,0.0014546812,0.999944,8.7082386e-05,0.0054169893,0.023049295,0.0,0.8706441,1.6123056e-05
1.9669533e-06,0.00011906028,0.002507925,0.00022375584,1.835823e-05,0.9998487,0.18878463,2.7686357e-05,0.0041802227,0.00023207068
3.5762787e-07,0.0,0.86444956,1.7285347e-06,2.2947788e-06,4.23193e-06,0.0005297065,0.9868256,0.0017896891,5.888939e-05
3.9935112e-05,9.536743e-07,6.0617924e-05,9.62615e-06,2.5242567e-05,0.0002593696,0.0015636384,0.0017132163,0.84074414,0.025804788
0.00019872189,0.9981539,0.0010181963,3.0875206e-05,4.5984983e-05,0.0036340952,0.0012179613,1.2516975e-06,0.0071214736,0.003349036
5.662441e-07,0.00012585521,0.9204334,0.99941194,0.001262337,0.00204283,0.0046830475,1.6987324e-06,0.8156939,3.8027763e-05
1.1086464e-05,2.3841858e-07,5.158782e-05,7.161498e-05,5.90086e-06,5.4508448e-05,0.0010328293,0.005595267,0.99325514,0.0014656484
0.0,0.00011858344,0.00017979741,0.9997392,0.924076,0.9933243,0.0048075914,0.0,0.00030317903,9.834766e-07
0.9514841,1.5199184e-06,0.00069496036,9.715557e-06,6.9737434e-06,0.0023248196,0.00510782,0.0007483661,0.00080388784,0.00716123
0.9949268,2.9802322e-08,1.5169382e-05,3.606081e-06,2.7418137e-06,0.00043922663,0.0011867881,4.708767e-06,0.00011578202,0.00053685904
0.00022131205,0.00253281,0.24814412,0.00023931265,0.00023907423,0.9641406,0.054246783,0.0039370656,0.007147968,0.0076069236
0.01719138,0.0,0.00013279915,4.172325e-07,2.0861626e-07,1.3649464e-05,0.00017300248,0.9985117,6.2286854e-06,8.1419945e-05
0.0,5.364418e-07,0.0006181598,0.00032797456,0.0001103878,1.0,0.0020434856,3.373623e-05,0.03312081,5.9604645e-07
0.0055682063,4.7683716e-07,0.0004838705,6.428361e-05,1.0728836e-06,0.9923099,0.00820455,0.00014290214,0.0036351383,9.909272e-05
1.1920929e-07,1.4036894e-05,0.0026324987,4.2438507e-05,3.361702e-05,0.99999976,0.0024772584,2.861023e-06,0.006905377,1.8119812e-05
0.00011822581,2.0176172e-05,0.0029830635,8.136034e-05,1.5497208e-05,0.0006175935,0.010659337,5.3852797e-05,0.064190924,0.8062248
9.924173e-06,1.1920929e-07,0.9996637,1.630187e-05,0.00013872981,0.0003196299,0.0065613985,0.014038384,0.00080010295,0.0014446974
1.5437603e-05,6.2584877e-07,3.0994415e-06,0.99995947,6.2584877e-07,0.00010576844,0.0006327927,0.0,2.5302172e-05,4.7683716e-07
0.26760024,1.2516975e-06,4.87864e-05,2.4825335e-05,0.00012397766,0.0015873611,0.003353715,8.714199e-05,0.045270115,0.2879647
0.99742866,0.0,1.7285347e-06,2.3841858e-07,3.5762787e-07,0.00013577938,0.0002540648,2.4437904e-06,1.7523766e-05,0.00064510107
0.0039702356,4.7683716e-06,0.00040006638,3.8057566e-05,0.0007234812,0.9998239,0.0013903081,0.00010642409,0.020018935,0.00023844838
0.060086608,8.7320805e-06,5.620718e-05,0.00013038516,0.00013759732,0.003467679,0.7390726,0.00040641427,0.017517477,0.0050601065
0.00028038025,1.0967255e-05,0.9430361,7.3581934e-05,0.0009930134,0.017338365,0.0068357587,0.001090616,0.029368013,0.0035356581
0.361884,1.4901161e-07,0.00013262033,5.662441e-07,8.225441e-06,0.64588344,0.0038853288,4.2676926e-05,0.0002693534,0.00014257431
0.8504195,2.3841858e-07,0.00010341406,3.5583973e-05,1.5974045e-05,0.0004362464,0.0012360513,0.0008377731,0.012079984,0.040186316
0.07723263,0.0001193881,0.00024816394,2.4735928e-06,2.9802322e-08,0.00015479326,0.00063604116,0.00012603402,4.452467e-05,0.9458564
7.1018934e-05,1.296401e-05,0.0022650063,0.0010102093,0.00060746074,0.9746475,0.010276169,0.0094999075,0.18251517,0.0050853193
0.40294027,6.109476e-06,0.029683769,0.0001668036,0.010225475,0.00037136674,0.008881807,0.13677767,0.011285245,0.020489305
0.038754642,4.172325e-07,6.252527e-05,2.115965e-06,2.592802e-06,0.8620951,0.0012584031,9.408593e-05,0.01042524,0.0011041164
0.9554384,0.0,9.536743e-06,9.745359e-06,2.026558e-06,0.00015842915,0.0003388524,0.0059514344,5.0365925e-06,0.000333637
0.081395715,1.1920929e-06,8.559227e-05,0.0013581216,1.1622906e-06,0.0009470284,0.003948182,0.0012417436,0.88796663,0.0051428974
0.000106573105,0.00036212802,0.96183145,0.0001347959,4.1484833e-05,0.99357563,0.01763153,0.00018134713,0.0015680492,9.49502e-05
0.9391284,2.682209e-07,0.0012380183,7.778406e-06,5.6236982e-05,0.00057026744,0.0032240152,0.00014653802,0.024071693,0.00428164
5.662441e-07,0.001985699,0.00017568469,0.9999646,0.0388667,0.005159378,0.48003638,1.4901161e-07,0.0012219846,4.4047832e-05
0.9948408,0.0,1.8894672e-05,7.4505806e-07,3.3974648e-06,0.0012514293,0.0004557371,5.0395727e-05,0.00023141503,0.00047171116
1.4394522e-05,5.543232e-06,0.00010961294,0.9999547,3.3974648e-06,0.00092694163,0.0012103319,0.0,0.0006465614,6.2584877e-06
0.97825754,2.9802322e-07,1.1146069e-05,1.7285347e-06,0.0,0.00030201674,0.00054213405,7.748604e-07,0.0054341555,0.0015470386
8.928776e-05,2.3841858e-06,4.181266e-05,9.4771385e-05,6.4998865e-05,0.00021666288,0.002927661,0.00045213103,0.9601486,0.016297162
1.937151e-06,0.007812858,0.007534951,0.0002553165,4.61936e-06,0.99993837,0.07180151,2.9027462e-05,0.0030379891,0.00029689074
2.1457672e-06,1.8209219e-05,0.00061661005,0.99997944,0.0003298521,0.00040191412,0.0051035583,1.9967556e-06,0.0002233386,4.1484833e-05
0.995839,0.0,6.7949295e-06,4.917383e-06,1.7881393e-06,0.00060489774,0.0021048486,1.1920929e-07,0.0005610585,0.00082302094
5.8710575e-05,8.940697e-08,2.2053719e-06,2.0861626e-07,2.682209e-07,9.602308e-05,0.00027549267,6.556511e-06,0.99982107,2.989173e-05
0.049224555,8.940697e-08,0.9936987,6.0796738e-06,5.632639e-06,0.00015506148,0.0039470494,6.0230494e-05,0.00028184056,0.00081783533
0.009144247,0.9736619,0.0014587939,2.321601e-05,3.3169985e-05,0.0026093423,0.0025431216,1.9073486e-06,0.00029277802,0.002416551
0.99493,0.0,4.4703484e-06,3.0398369e-06,2.2947788e-06,0.0004874766,0.0008356869,2.8848648e-05,0.00044593215,0.0004158914
0.0064504743,4.7683716e-07,6.645918e-06,5.453825e-06,2.2053719e-06,0.00033837557,0.00082838535,9.435415e-05,0.99375594,0.00021627545
0.81816167,4.7683716e-07,0.00042155385,1.5884638e-05,0.00065261126,0.001966536,0.0048264265,0.00038349628,0.059821308,0.010866076
2.0861626e-07,0.0025803149,0.6593345,0.74086505,9.790063e-05,0.0241476,0.5366534,2.6375055e-05,0.93625593,2.861023e-05
0.037455708,0.0,4.2676926e-05,4.798174e-06,8.34465e-07,9.381771e-05,0.00065618753,7.286668e-05,0.971307,0.00048199296
0.99451935,5.9604645e-08,2.7060509e-05,6.556511e-07,2.413988e-06,0.0005131066,0.0016679168,8.136034e-06,0.0002503395,0.003148377
0.86271155,0.0,1.7881393e-05,1.1026859e-06,7.6293945e-06,5.8323145e-05,0.00031879544,0.43426964,5.760789e-05,0.0016225576
0.14295718,7.4505806e-07,3.1590462e-06,3.2782555e-07,1.1920929e-07,0.0018778741,0.73501486,2.7358532e-05,0.00016775727,0.000114262104
0.87262416,4.4703484e-07,5.069375e-05,2.2351742e-06,4.172325e-07,0.0007466674,0.00077170134,1.3232231e-05,0.25269765,0.004808694
0.81855536,4.172325e-07,4.3988228e-05,1.1026859e-06,6.5267086e-06,0.00088250637,0.0017566979,3.2484531e-06,0.18704724,0.010540754
0.0008006096,5.9604645e-08,9.23872e-07,8.34465e-07,0.0,0.00015860796,0.0009562969,2.2351742e-06,0.99849546,8.955598e-05
0.35413897,2.503395e-06,0.00016471744,1.2904406e-05,0.00018846989,0.00081560016,0.06543979,0.1147089,0.0012941658,0.022742063
1.4454126e-05,2.0861626e-06,0.022242218,0.00027811527,0.0008299947,0.00010275841,0.006404996,0.0017010868,0.9940672,0.0008196533
3.5762787e-07,7.6800585e-05,0.00018674135,0.9999403,0.999295,0.0010019243,0.005746752,5.9604645e-08,0.0004466772,1.1920929e-07
0.8745442,1.7881393e-07,2.1576881e-05,9.23872e-07,1.3113022e-06,0.0029000938,0.0048185587,2.7120113e-06,0.022548735,0.023263514
0.8665834,2.771616e-06,0.007348597,1.731515e-05,2.9206276e-06,0.0006277859,0.0029972792,4.6372414e-05,0.036332607,0.03381875
0.77927625,2.9802322e-08,0.0002296865,4.172325e-07,4.172325e-07,0.00034579635,0.0012957752,0.0021923482,0.20617706,0.0021541119
0.00032678246,3.4213066e-05,4.9471855e-06,7.838011e-06,1.5199184e-06,0.0032058358,0.97865987,2.2053719e-06,0.0033736527,0.004508257
0.00027528405,2.9802322e-07,0.00068590045,1.5854836e-05,3.5226345e-05,0.000112622976,0.0015460253,0.966871,0.0017251074,0.03476289
1.013279e-06,7.4505806e-06,7.748604e-05,0.9999348,6.812811e-05,0.00047546625,0.0008637607,3.2365322e-05,9.6172094e-05,0.00012639165
1.1831522e-05,2.8252602e-05,1.463294e-05,0.000213027,1.9967556e-06,0.58293676,0.9852524,5.3942204e-06,0.0049476326,0.0046791136
0.000103890896,0.00027644634,0.08308098,0.0004952252,0.35780233,0.009746373,0.064994186,0.00023812056,0.86880076,0.010377556
0.00048562884,0.0,0.9991869,6.2584877e-07,4.3213367e-06,0.0003169775,0.0046626627,4.9471855e-06,0.12262043,0.00045135617
0.00018173456,5.9604645e-08,6.9737434e-06,8.34465e-07,6.2584877e-07,4.6253204e-05,0.000421077,6.8604946e-05,0.9993496,0.000105232
0.99460906,0.0,1.9222498e-05,2.413988e-06,1.5497208e-06,0.00049993396,0.0013149083,0.00015047193,0.00021961331,0.0003466308
0.96867955,1.4007092e-06,0.0006042123,1.1205673e-05,1.3709068e-06,0.0010943115,0.011186719,0.000109285116,7.867813e-05,0.006230265
1.0073185e-05,2.9802322e-08,5.662441e-07,0.9999646,5.9604645e-08,0.00024047494,0.0009713769,0.0,1.4334917e-05,5.155802e-06
4.5001507e-06,8.940697e-08,6.556511e-07,0.999982,2.69413e-05,0.000115424395,0.00027400255,0.0,1.859665e-05,1.1920929e-07
0.081757635,2.0861626e-07,0.00021493435,0.00010290742,1.6003847e-05,0.0012719035,0.016934276,0.00046876073,0.94640964,0.00043681264
0.99093986,2.9802322e-08,2.7388334e-05,7.8082085e-06,4.7683716e-07,0.0002565086,0.0020592809,1.5199184e-06,0.00020676851,0.0034835935
0.97325015,2.0861626e-07,0.0002657473,5.4240227e-06,2.2351742e-06,0.0009714365,0.005361408,5.5104494e-05,0.0008467138,0.0016666353
0.10339707,1.4305115e-06,6.2584877e-07,3.0398369e-06,1.4036894e-05,0.004314512,0.46985668,1.50203705e-05,0.000692755,0.00104779
0.001227349,1.218915e-05,2.527237e-05,0.0001514852,0.00034296513,0.015033364,0.933831,0.00031235814,0.00037887692,0.004854381
0.7798835,1.4603138e-06,0.000918448,0.00019136071,0.00011211634,0.0038003922,0.007896394,0.0025033057,0.17548802,0.0136421025
0.363371,4.7683716e-07,6.4730644e-05,0.00014269352,1.2218952e-06,0.0047034025,0.31352407,1.937151e-06,0.006682515,0.0016156733
0.00029739738,1.7940998e-05,0.0019321442,7.620454e-05,0.0010411441,0.00052824616,0.016074866,0.0003413558,0.6090962,0.15373743
0.6866706,8.940697e-08,0.00021851063,1.3023615e-05,5.0365925e-06,0.00044935942,0.0020613968,0.0003017485,0.61966085,0.0010875165
0.00013282895,5.9604645e-08,6.0796738e-06,0.0019323826,2.1517277e-05,0.00015702844,0.0018253624,0.00010916591,0.9992665,7.721782e-05
9.834766e-07,0.9957225,0.00037878752,0.0044837594,7.778406e-06,0.0036855936,0.017437875,3.0398369e-06,0.9802638,0.004223436
0.0011121929,2.9802322e-07,2.6136637e-05,4.7683716e-07,2.8312206e-06,0.00013977289,0.00070264935,4.3660402e-05,0.996117,0.0015361309
0.0005144775,0.0,0.99973565,1.7881393e-07,3.8146973e-06,0.00012329221,0.0023865402,9.983778e-06,0.24472737,1.7285347e-05
7.048249e-05,0.9934695,0.00022992492,0.050976664,2.9206276e-05,0.002908349,0.0001899004,5.620718e-05,0.022182584,0.010002136
0.32190624,1.1920929e-07,1.3709068e-05,1.2516975e-06,6.854534e-07,0.0001372397,0.00028768182,1.1920929e-05,0.8756652,0.0024138093
2.592802e-06,0.981292,8.046627e-06,0.0011321008,8.6426735e-07,0.006692052,0.007971704,1.1920929e-07,0.98488843,0.0010965168
2.4229288e-05,0.99748707,0.00041386485,0.0009934902,0.00032377243,0.0057251453,0.0017643273,1.5795231e-06,0.6353931,0.0017597079
0.0041814446,0.60947883,0.03112632,0.0004286766,0.000112921,0.0020900369,0.006893784,0.0003119707,0.002001673,0.095091194
1.7881393e-07,4.172325e-07,0.00041756034,2.8043985e-05,0.000109910965,0.99999994,0.0011610091,5.543232e-06,0.0049224794,6.67572e-06
0.00017938018,0.9067924,0.035479307,0.007669568,0.029872894,0.0330337,0.0615595,0.0122495,0.00056901574,0.021653235
4.351139e-05,1.4901161e-07,0.9985895,9.715557e-06,0.00029495358,0.00069856644,0.005089551,0.00036600232,0.44437456,6.8843365e-06
0.69697505,9.23872e-07,2.9057264e-05,6.854534e-07,2.0861626e-07,4.6104193e-05,0.00022476912,0.0001924634,1.642108e-05,0.45825824
3.5762787e-07,0.0013951063,0.00036421418,0.9618129,0.58857334,0.9996267,0.03698978,4.2825937e-05,0.00975579,0.00012525916
0.84225494,0.0,2.8312206e-05,1.3291836e-05,0.045497715,0.0014851987,0.0023890138,4.529953e-05,0.01590553,0.010960549
5.9604645e-07,0.0008557737,0.00017693639,0.99998736,0.00010699034,0.0391576,0.1430353,0.0,0.11625311,1.6093254e-05
0.041658998,0.0,9.691715e-05,6.2584877e-07,3.33786e-06,1.5199184e-05,0.00015923381,0.9830655,2.05338e-05,0.0006464422
0.67996126,3.874302e-07,0.0002630949,0.00011229515,2.82228e-05,0.0015336275,0.0062036216,0.15528607,0.005964935,0.045508742
0.8307091,2.3841858e-07,0.00083851814,4.3660402e-05,2.0563602e-06,0.00068956614,0.002950132,0.0011014938,0.00022372603,0.03026566
0.98854935,5.9604645e-08,5.185604e-06,9.536743e-07,4.7683716e-07,0.0004912615,0.0011709332,6.1690807e-06,0.0006763935,0.003080517
0.00014573336,0.0,3.0696392e-06,0.0,1.4901161e-07,0.0,7.4505806e-07,2.9802322e-08,6.2674284e-05,0.99999785
0.010008633,2.3245811e-06,5.3316355e-05,0.00016114116,3.2782555e-06,0.0004364252,0.24561676,0.060046077,0.022800267,0.0012566149
0.00021034479,8.940697e-07,7.95722e-06,4.723668e-05,1.4483929e-05,0.0002193749,0.00087580085,0.0002682507,0.9989193,0.00035774708
0.0,2.56598e-05,9.8228455e-05,0.9993483,0.00049492717,0.00011962652,0.0034746826,0.0,0.0021797419,0.0031490624
0.03446746,1.2516975e-06,0.010789752,3.385544e-05,0.0036565065,0.0009934008,0.009104401,0.0012699366,0.72264326,0.020509869
2.3841858e-07,0.0024033189,0.000590235,0.99967074,1.5079975e-05,0.0017718077,0.018943131,8.6426735e-07,0.024466068,0.0014684498
0.00094023347,0.0,9.387732e-06,1.3202429e-05,6.7055225e-06,9.0777874e-05,0.0012516379,0.0002914667,0.9980085,0.00010967255
0.98903716,5.9604645e-08,4.351139e-06,6.854534e-07,5.9604645e-08,0.0007533133,0.0010664463,9.834766e-06,0.0067130625,0.0016551316
0.44205335,2.3841858e-07,0.00023826957,9.834766e-06,1.4901161e-07,0.0014898777,0.08013606,4.300475e-05,0.00014743209,0.00027158856
0.91843516,3.5762787e-07,6.508827e-05,7.4505806e-06,6.824732e-06,0.00055775046,0.0009457171,0.0031599104,0.000121444464,0.061520636
0.0,0.0014497638,0.0015596449,0.9991466,0.8629198,0.99927825,0.010686815,2.7120113e-06,0.00021579862,2.2649765e-06
0.099255174,9.536743e-07,0.062796384,3.0100346e-05,2.336502e-05,0.00029954314,0.009153873,0.01158759,0.00018492341,0.36958086
5.5134296e-06,1.7285347e-06,2.3663044e-05,0.9999852,1.1920929e-07,0.000559479,0.001452744,5.9604645e-08,2.1845102e-05,3.695488e-06
0.055190504,5.248189e-05,5.3346157e-06,1.2934208e-05,4.1127205e-06,0.045143962,0.77262497,0.0003092885,0.00021722913,0.0009009838
0.25283247,2.3841858e-07,0.00025501847,8.34465e-07,4.3213367e-06,5.567074e-05,0.00043296814,0.96086764,1.2785196e-05,0.00593397
0.00037059188,2.3394823e-05,2.3126602e-05,0.9999217,0.0048914254,0.0021131635,0.0023207664,0.0,0.0037893057,3.8444996e-06
0.00060611963,0.9909774,0.0008573532,8.821487e-06,1.2934208e-05,0.0067144036,0.008621722,1.0043383e-05,0.30413896,0.008131057
1.5616417e-05,0.0,1.1920929e-07,5.081296e-05,0.0,2.2649765e-06,6.556511e-06,2.9802322e-08,8.940697e-06,0.99982464
2.7507544e-05,3.695488e-06,5.2154064e-06,7.480383e-06,0.0,2.1219254e-05,0.00041517615,0.0001579225,0.0051058233,0.9958124
0.88412,2.9802322e-08,1.2516975e-05,1.3709068e-05,1.9669533e-06,0.0008793771,0.0012860298,2.0056963e-05,0.41939014,0.00073441863
1.218915e-05,1.8656254e-05,0.00033298135,1.13248825e-05,0.000105798244,0.999998,0.0035235584,7.2717667e-06,0.04234934,8.1300735e-05
5.9604645e-08,1.1920929e-07,3.287196e-05,0.999959,0.9978686,0.00019073486,0.0035599172,0.0,2.0712614e-05,0.0
0.030128032,0.0,8.195639e-06,2.9802322e-08,1.4901161e-07,3.5762787e-06,0.00016659498,0.99603665,1.3828278e-05,6.151199e-05
0.0014664531,5.7816505e-06,8.761883e-06,1.0460615e-05,5.2452087e-06,0.0009922981,0.0038733184,8.195639e-06,0.9861013,0.0038088858
0.98380256,0.0,3.9339066e-06,3.555417e-05,2.8908253e-06,0.00046300888,0.0009524822,0.00013762712,4.8846006e-05,0.0045974553
0.001126051,2.9802322e-08,9.164214e-05,3.7521124e-05,1.1622906e-06,2.771616e-06,0.00021317601,0.9968214,0.0034076273,0.00024399161
0.00020137429,0.0,0.9999326,5.066395e-06,1.6629696e-05,0.00051155686,0.009353727,3.0696392e-06,0.005352825,6.467104e-06
0.00036364794,1.1920929e-07,8.821487e-06,2.5331974e-06,1.7881393e-07,6.80089e-05,0.00040858984,1.5467405e-05,0.9994316,0.00017607212
0.00024226308,0.0001270175,2.2381544e-05,0.00017127395,7.5399876e-06,0.017308146,0.99135715,7.534027e-05,0.09490475,0.0015279353
0.066001505,1.6987324e-06,0.0009955764,1.707673e-05,1.5437603e-05,0.00043022633,0.003702104,0.0016725957,0.84880555,0.014437348
5.6624413e-06,4.544854e-05,0.00051018596,0.00010809302,0.00018510222,0.9999869,0.00089660287,0.0003155768,0.010184646,0.0011453629
0.8880429,2.9802322e-08,9.158254e-05,2.2053719e-06,5.096197e-06,0.00031518936,0.0016115904,0.051104903,0.009040177,0.0012481213
0.9112757,2.682209e-07,0.00020062923,8.314848e-06,1.168251e-05,0.00208655,0.005580008,0.0073679686,0.00026908517,0.0048450828
0.0003693998,5.2154064e-06,2.5331974e-05,8.6426735e-07,7.3611736e-06,7.072091e-05,0.00034084916,9.775162e-06,0.9970381,0.0014694631
0.002676785,6.467104e-06,2.2947788e-06,3.156066e-05,1.1920929e-07,0.0048644543,0.99514306,4.172325e-07,4.9829483e-05,0.00027033687
0.9920497,3.5762787e-07,8.761883e-06,3.6358833e-06,8.940697e-08,0.00020241737,0.001226902,0.000103890896,6.303191e-05,0.013203949
3.6358833e-06,3.1888485e-06,1.0311604e-05,0.9999876,2.7120113e-06,0.0002245605,0.0008087754,0.0,0.00040727854,4.172325e-07
0.0028852522,0.0,5.066395e-06,8.940697e-08,0.0,1.847744e-06,2.6226044e-05,0.9994949,5.853176e-05,6.3180923e-06
0.0021050274,8.940697e-08,0.000105232,9.447336e-06,8.007884e-05,9.176135e-05,0.0012913644,0.00035783648,0.99738914,0.0002078116
0.3192106,7.033348e-06,9.2208385e-05,3.5762787e-07,0.0,0.00031757355,0.0044648945,4.3660402e-05,0.60996217,0.01474762
2.2351742e-06,0.0,9.083748e-05,5.066395e-07,3.5762787e-07,5.453825e-06,0.0001746118,0.9999374,0.0014366806,3.9219856e-05
9.3609095e-05,0.0004017055,9.649992e-05,6.0886145e-05,1.6391277e-06,0.0012849867,0.99405646,1.3291836e-05,0.0016288757,0.028723776
0.07389259,1.1920929e-07,0.0003068447,1.9103289e-05,1.0728836e-05,0.0005797148,0.0019363761,0.00013998151,0.9449898,0.0028981268
9.387732e-06,0.0,2.0861626e-07,1.7881393e-07,0.0,0.0,9.208918e-06,0.0,9.000301e-06,0.9999783
0.00026983023,0.0006110668,0.01289919,0.001558274,0.00045216084,0.0024843514,0.035398573,3.427267e-06,0.9089921,0.05874273
0.04183483,3.8444996e-06,0.0003528595,1.2129545e-05,3.5762787e-06,0.00048583746,0.0038736165,0.00029054284,0.89459646,0.015303761
0.00024038553,7.4505806e-07,5.9515238e-05,5.155802e-06,6.824732e-05,0.99998194,0.004193604,0.00027912855,0.0010503232,1.2546778e-05
0.9976408,0.0,1.7106533e-05,1.1026859e-06,2.682209e-07,0.0006676316,0.0018948615,6.467104e-06,0.00017482042,0.000644058
0.9903769,0.0,6.0796738e-06,6.2584877e-07,1.4901161e-07,0.00036284328,0.0007954836,0.00010755658,0.0013925433,0.0013846457
0.9665293,8.940697e-08,3.5107136e-05,1.3411045e-06,4.7683716e-07,0.00042325258,0.00085520744,0.0015400648,0.0011295676,0.0048558414
0.98580825,8.940697e-08,0.00047761202,1.0550022e-05,2.8014183e-06,0.0011346638,0.0022260547,6.3329935e-05,6.592274e-05,0.0008417964
0.0011152029,1.7881393e-07,4.810095e-05,1.4036894e-05,3.504753e-05,0.00019478798,0.0012344718,0.002570331,0.99695146,0.00017699599
0.9868223,3.2782555e-07,7.44164e-05,1.0102987e-05,1.0699034e-05,0.0008660555,0.0023990571,0.00014472008,0.00030246377,0.011548072
0.00034412742,0.00023004413,0.0009970665,0.00080022216,0.006288141,0.9999402,0.00864768,0.0004709959,0.02490905,0.0002950132
0.09539762,5.364418e-07,1.6093254e-05,6.7949295e-06,2.1457672e-06,0.0004723072,0.0026551783,4.4375658e-05,0.9440415,0.0014875233
0.16156071,5.9604645e-08,1.719594e-05,2.8312206e-06,2.3841858e-07,5.26011e-05,0.00020688772,0.93273777,3.257394e-05,0.007912576
0.0038461387,0.92669976,0.0006787777,3.0100346e-05,1.8537045e-05,0.0012299418,0.0014107227,3.0696392e-06,0.003261447,0.016803652
2.6375055e-05,0.99052674,8.702278e-05,0.001246959,2.810359e-05,0.005111873,0.00042653084,0.0035697818,0.03156066,0.06259343
0.9949688,0.0,3.0398369e-06,3.5762787e-07,1.4901161e-07,7.838011e-05,0.00021210313,2.5779009e-05,7.4505806e-06,0.003956288
8.973479e-05,2.05338e-05,0.00091150403,0.003250271,0.0015682876,0.9997505,0.0011746883,0.00019231439,0.19227093,0.00040328503
0.99682033,0.0,1.5586615e-05,2.3841858e-07,8.940697e-08,0.00143978,0.00208807,4.172325e-06,0.0002656877,0.00041294098
0.0001347363,6.1690807e-06,0.00013634562,0.99963796,0.5689871,0.0014834106,0.0022334754,5.9604645e-07,0.11708856,5.453825e-06
0.0013778508,4.172325e-07,0.00014567375,4.7922134e-05,1.2993813e-05,9.906292e-05,0.00066274405,3.2186508e-05,0.99584347,0.0016548038
0.5210764,0.0,3.695488e-06,0.0,0.0,3.3676624e-06,0.00018745661,0.45947435,2.9981136e-05,0.001421839
0.07088208,1.1920929e-07,6.4343214e-05,5.066395e-06,5.6922436e-06,0.00048345327,0.0013443232,0.0034782588,0.9337441,0.0022292733
0.9972776,0.0,3.963709e-06,2.8908253e-06,7.1823597e-06,0.0005554557,0.0007865131,6.7949295e-06,4.9889088e-05,0.0013564527
0.0024956465,1.758337e-06,0.005690664,0.004235536,0.00018635392,0.00019460917,0.0023027658,0.00065627694,0.9922842,0.0004929006
1.052022e-05,1.12354755e-05,1.1354685e-05,0.9999527,7.033348e-06,0.0006503165,0.0010203719,0.0,0.06899592,7.4505806e-06
0.98727,1.1920929e-07,4.285574e-05,1.6987324e-06,2.861023e-06,0.00205791,0.004996419,1.1920929e-05,0.00024336576,0.0046061873
0.036953837,2.9802322e-07,2.6524067e-06,1.847744e-06,2.1755695e-06,0.0002015531,0.00071945786,4.8577785e-06,0.97810024,0.0009858608
2.6524067e-06,1.4007092e-06,0.00030767918,6.1392784e-06,5.662441e-07,0.9999995,0.006639719,3.6358833e-06,0.0012488961,6.943941e-06
0.7596339,2.3841858e-07,1.7762184e-05,5.00679e-06,2.527237e-05,0.0017492771,0.0020516813,3.1888485e-05,0.1824905,0.0014159679
0.0036548078,1.4901161e-07,2.4735928e-06,7.2419643e-06,1.013279e-06,0.000120192766,0.0011057556,1.1026859e-06,0.98682034,0.0024850965
0.00014075637,2.682209e-07,1.7404556e-05,0.99997234,5.364418e-07,0.00011000037,0.001380235,1.4901161e-07,9.1701746e-05,1.013279e-06
0.9654062,2.9802322e-08,8.7320805e-06,5.9604645e-07,6.020069e-06,0.0005042851,0.0012072325,0.0028479695,0.0005927086,0.0014933944
4.4703484e-07,9.6827745e-05,5.659461e-05,0.9999155,0.0025528967,0.003610015,0.05286342,2.682209e-07,0.0018290877,4.172325e-05
1.1920929e-06,1.1920929e-07,7.775426e-05,0.9999923,0.0014761984,0.0003913045,0.0005584359,0.0,0.036300033,7.4505806e-07
4.8160553e-05,1.013279e-06,1.1563301e-05,6.2584877e-07,7.748604e-07,0.0002336204,0.25077498,0.9007545,0.00014799833,0.0013984442
0.0002437532,1.4007092e-06,5.364418e-06,2.2649765e-06,8.940697e-08,0.00012680888,0.0012250841,2.3752451e-05,0.006724596,0.9803622
2.9802322e-07,1.1920929e-07,6.28531e-05,0.9999902,0.0010693371,0.00023201108,0.0004864037,0.0,0.0030166805,2.2053719e-06
0.19108969,2.3841858e-07,6.2048435e-05,6.493926e-05,1.0579824e-05,0.00089231133,0.0017771125,1.5854836e-05,0.90633047,0.0018534064
4.7683716e-07,0.99141884,0.0008868873,0.86719733,3.2126904e-05,0.0034920871,0.003599614,6.556511e-07,0.9795083,6.368756e-05
3.5762787e-06,5.2660704e-05,3.6925077e-05,0.9999807,6.2435865e-05,0.0022854507,0.0027748644,0.0,0.0004287064,3.2782555e-06
0.044861645,3.3676624e-06,1.6719103e-05,6.2286854e-06,8.940697e-08,0.00014230609,0.0004942417,0.00067320466,0.006288439,0.86463916
8.940697e-08,1.013279e-06,9.2208385e-05,0.9999517,0.0075675547,8.60095e-05,0.00062069297,3.695488e-06,0.00010865927,3.0517578e-05
0.000769645,0.00068584085,1.630187e-05,5.5283308e-05,2.0384789e-05,0.05650589,0.95648545,7.146597e-05,0.67666674,0.002222091
0.00042161345,2.9802322e-08,0.9980948,1.3649464e-05,0.0007560551,0.0001449883,0.014620513,2.026558e-06,0.023524016,0.0003811121
0.98405504,8.940697e-08,4.6938658e-05,2.0861626e-06,6.2584877e-07,0.0001823008,0.0006145239,0.0007811487,0.00010275841,0.010480434
0.82539463,2.592802e-06,4.7534704e-05,3.7252903e-06,2.3841858e-07,0.0023310483,0.0029430985,3.1262636e-05,0.26278597,0.011298001
0.00042632222,1.2814999e-06,0.0006479621,0.00041747093,5.066395e-06,0.98667586,0.0009701848,0.0015722811,1.5854836e-05,0.00028538704
9.214878e-05,1.4901161e-07,2.9802322e-06,1.4901161e-07,2.0861626e-07,0.0,7.033348e-06,4.7683716e-07,3.2544136e-05,0.9999957
0.9921934,0.0,2.1547079e-05,2.9802322e-07,4.7683716e-07,0.00052556396,0.0008225143,0.00026366115,0.00015026331,0.0005401075
0.0005480349,7.1525574e-07,1.6868114e-05,2.2947788e-06,2.3841858e-07,0.00017628074,0.0011681318,1.3381243e-05,0.9987359,0.00019773841
0.86731637,1.6093254e-06,0.00041407347,5.2899122e-05,8.314848e-06,0.00075671077,0.0014459491,5.066395e-06,0.0010044575,0.092185944
0.9864547,0.0,1.4424324e-05,4.7683716e-07,5.9604645e-08,0.0004759431,0.00044596195,3.516674e-06,0.0075236857,0.00043526292
0.003267914,4.7951937e-05,9.536743e-06,1.9431114e-05,1.4901161e-06,0.008277923,0.9946409,1.013279e-05,0.010157585,0.0012139678
0.46474048,0.0,0.86222374,7.1525574e-07,4.172325e-05,7.459521e-05,0.0031559765,0.00097346306,0.00018200278,0.0005340874
0.8427175,1.1920929e-07,0.0008870959,3.784895e-06,0.00094679,0.00035983324,0.0015699863,0.013503313,5.1170588e-05,0.02129963
0.00028952956,1.9162893e-05,9.953976e-06,0.00016969442,0.005961418,0.005931139,0.026854217,3.2782555e-07,0.005048275,0.7894968
8.1300735e-05,0.9772133,0.0022323132,0.0004220307,0.00013950467,0.012414515,0.019253582,1.013279e-06,0.5126897,0.048975945
0.97531354,2.3841858e-07,3.7282705e-05,1.3381243e-05,2.115965e-06,0.00041365623,0.0015859604,5.5015087e-05,0.0001245439,0.027552813
2.1755695e-06,6.2584877e-06,0.0001502037,0.99995965,0.01921472,0.00035223365,0.0019105077,2.9802322e-08,0.61790365,4.261732e-06
0.10384917,3.3080578e-06,0.7640333,4.5865774e-05,0.0009818375,0.0014170706,0.009068638,0.00033795834,0.021295637,0.0032448769
0.074496746,2.9802322e-07,5.3286552e-05,5.155802e-06,2.592802e-06,0.00020965934,0.0012644529,0.00012931228,0.8340899,0.017385304
7.748604e-07,0.004396379,0.39232364,0.9790534,8.389354e-05,0.0010753572,0.003235221,1.4901161e-06,0.9909366,5.4627657e-05
0.42647955,2.682209e-07,0.0009637475,0.0004003644,5.7816505e-06,0.00028780103,0.001467973,0.13553044,0.00045761466,0.0025407374
0.0009007156,8.940697e-08,0.9632206,4.3809414e-06,1.2993813e-05,0.00034058094,0.008387119,9.953976e-05,0.88671124,0.00016629696
0.91223884,0.0,2.7775764e-05,2.2768974e-05,0.0037443936,0.0018656254,0.0016041994,4.515052e-05,0.0055009425,0.0011835098
8.940697e-08,0.00022822618,0.0008684993,0.99969864,0.0004222095,0.0019740462,0.020939529,1.8239021e-05,0.88226104,0.00023236871
1.874566e-05,1.9669533e-06,1.7225742e-05,0.9999943,2.4437904e-06,0.00019097328,0.00054323673,5.9604645e-08,6.198883e-06,4.7683716e-07
0.00091573596,2.360344e-05,0.00014826655,0.0014757216,3.2186508e-06,0.0013518333,0.027046472,1.3113022e-05,0.99333745,0.00465706
3.874302e-07,0.27738613,0.029072315,0.9999417,0.14181757,0.45168215,0.08486763,6.2584877e-07,0.033016622,2.6226044e-06
0.99218774,8.940697e-08,7.072091e-05,9.5665455e-06,2.2411346e-05,0.0013522804,0.00135988,0.00016522408,4.0769577e-05,0.0016548932
2.8967857e-05,0.974017,0.002663076,0.00060248375,0.000116974115,0.006989479,0.03550759,2.3245811e-06,0.8120223,0.01596564
0.9963107,2.9802322e-08,2.5182962e-05,8.6426735e-07,1.9967556e-06,0.0019044876,0.0016050041,4.3809414e-06,0.00019559264,0.0006326437
0.00062072277,8.940697e-08,2.2470951e-05,4.7683716e-06,5.453825e-06,0.00011822581,0.001229316,4.4316053e-05,0.9983896,0.00031661987
0.00023153424,5.5342913e-05,0.00047758222,0.00013393164,0.00010508299,0.000119417906,0.0010233223,1.4990568e-05,0.9935535,0.010182112
1.04904175e-05,0.9942715,0.0050332844,0.7215966,0.0006123781,0.01705432,0.0026038587,9.834766e-07,0.51637715,0.0037088692
0.96432763,2.9802322e-08,8.7320805e-06,6.854534e-07,1.2516975e-06,0.00197047,0.0022849143,0.00031474233,0.02294764,0.0017710626
4.4703484e-07,5.155802e-06,0.0003040135,0.0024476945,9.596348e-06,0.9999999,0.0047668815,6.6161156e-06,0.0010727346,7.390976e-06
0.9257219,8.940697e-08,4.1395426e-05,7.6293945e-06,1.4901161e-06,0.00014072657,0.00030973554,0.01933512,2.1487474e-05,0.03478685
2.3543835e-06,5.9604645e-08,9.775162e-06,8.940697e-08,0.0,1.8179417e-06,0.00051161647,0.9845336,0.99537635,7.778406e-06
4.9978495e-05,0.9795761,0.001406759,0.010711998,9.715557e-06,0.0033845305,0.008357346,2.759695e-05,0.94814014,0.00791499
0.9681673,3.5762787e-07,7.197261e-05,8.940697e-06,3.2782555e-07,0.00025072694,0.0009496808,5.0395727e-05,2.2917986e-05,0.05682656
7.531047e-05,7.200241e-05,0.0013906658,0.0017890036,7.1167946e-05,0.99937904,0.18788975,0.00019049644,0.058755457,0.0007869601
6.5624714e-05,1.6987324e-06,2.4676323e-05,0.00012254715,1.2218952e-06,0.0001282394,0.00069606304,1.8119812e-05,0.999691,8.007884e-05
0.00036153197,0.16727155,0.030074537,0.12550834,8.273125e-05,0.009946853,0.0032601655,0.00021022558,0.33368796,0.09082401
0.00010150671,0.0011916161,0.011552542,0.2978843,0.20844805,0.98826075,0.032541633,0.0012585819,0.00281322,0.008861393
0.000115692616,1.937151e-06,2.9087067e-05,1.809001e-05,7.301569e-06,0.000300169,0.0019256473,0.0025740266,0.0023217201,0.9900013
0.02016759,8.940697e-07,0.00018116832,0.9354603,1.5825033e-05,0.00039476156,0.0011789203,0.00012239814,0.16473469,0.0030814111
0.0004926324,3.0696392e-06,0.00010189414,2.476573e-05,2.9534101e-05,0.00017920136,0.0046349466,0.000106185675,0.99677396,0.00082850456
5.7697296e-05,2.0861626e-07,2.8073788e-05,3.516674e-06,7.748604e-07,3.8266182e-05,0.00048282743,0.0003091097,0.9993776,0.00015687943
2.2351742e-05,3.0010939e-05,0.00029948354,0.999946,2.2619963e-05,0.0026333928,0.09910667,2.682209e-07,0.0061472952,0.00016245246
3.4570694e-06,7.987022e-06,0.0066744685,0.00014671683,1.9192696e-05,0.99998784,0.005564183,3.1739473e-05,0.165115,4.172325e-05
0.00026875734,8.940697e-08,0.9994678,7.3611736e-06,2.3186207e-05,0.0008752048,0.0020279884,9.149313e-06,0.13385922,3.710389e-05
0.58054656,7.748604e-07,3.710389e-05,1.5199184e-06,1.0848045e-05,0.00010898709,0.0006569326,0.0082573,0.011199087,0.19008997
0.0002002418,0.00061279535,7.6919794e-05,2.3692846e-05,7.0273876e-05,0.008995891,0.9643282,0.00041010976,0.0013155639,0.0031109452
0.99509126,0.0,6.7949295e-06,3.5762787e-07,5.066395e-07,0.0007608831,0.0007159114,1.6987324e-06,0.0005028546,0.0006633401
1.7344952e-05,1.1920929e-07,2.4437904e-06,0.9999832,3.5762787e-07,0.0006109476,0.0012892187,0.0,0.002957344,7.1525574e-07
0.007352501,0.00012904406,0.00019612908,2.8461218e-05,1.7881393e-07,0.00203681,0.35581028,1.6540289e-05,0.004445702,0.39499164
0.00035709143,8.940697e-08,3.5464764e-06,1.6987324e-06,4.4703484e-07,8.5532665e-05,0.00054600835,1.0192394e-05,0.99972665,1.9520521e-05
0.022697717,2.682209e-07,2.3633242e-05,4.3809414e-06,4.172325e-06,0.00020739436,0.0024529994,1.8507242e-05,0.9446908,0.009613931
5.662441e-07,0.79275507,0.008820295,0.99117845,0.00094625354,0.0026043057,0.06901911,4.7683716e-07,0.94789386,0.00048300624
0.98495877,0.0,2.2053719e-06,8.940697e-07,2.3841858e-07,0.00019869208,0.00049600005,0.00024309754,7.507205e-05,0.010961652
0.96360874,4.172325e-07,0.0001361072,1.6093254e-05,8.34465e-07,0.001400888,0.01221177,2.321601e-05,0.0013558865,0.009652048
0.97878265,2.9802322e-08,1.3023615e-05,2.3841858e-07,4.2021275e-06,0.0013508797,0.00180161,2.849102e-05,0.0063459277,0.0031946003
0.0014460683,3.5762787e-07,1.9013882e-05,1.2516975e-06,0.00040569901,0.00018578768,0.0010787845,7.042289e-05,0.99560577,0.0007567704
0.53376955,1.1920929e-07,8.031726e-05,1.257658e-05,3.0994415e-06,0.00035467744,0.0011000931,8.016825e-06,0.7508147,0.00063085556
0.00010719895,0.0,0.0003092885,1.5497208e-06,4.082918e-06,1.3411045e-05,0.00070506334,0.9988164,0.00030818582,0.0008535981
0.9962153,0.0,5.0365925e-06,1.168251e-05,8.34465e-07,0.0011128485,0.0009330213,1.758337e-06,0.00033855438,0.0008894503
1.7881393e-06,0.0017816722,0.55507296,0.4286965,0.004223615,0.9783396,0.19902173,0.0010508299,0.2888493,0.00048807263
0.62839293,2.0861626e-07,0.00012597442,0.0001462698,0.00024479628,0.0007060468,0.0027986765,0.0012321174,0.4051493,0.003653735
0.56621516,4.798174e-06,0.06916186,5.26309e-05,0.00016823411,6.824732e-05,0.009698838,0.008878678,0.009792,0.022190958
0.0033985972,2.9802322e-07,0.0025948286,5.057454e-05,0.002430886,4.8428774e-05,0.0019487441,0.00044316053,0.951596,0.0077635646
0.00038266182,1.1920929e-07,6.8843365e-06,4.827976e-06,1.4215708e-05,0.00010702014,0.0012231469,2.7865171e-05,0.99954367,0.00013267994
0.0057469606,3.516674e-06,4.9442053e-05,0.0016777515,0.0022073686,0.011025667,0.6546197,2.3066998e-05,0.00053963065,0.00021570921
0.015598506,1.7881393e-07,1.3977289e-05,1.9967556e-06,2.9802322e-07,0.00011897087,0.0016425848,0.0010899603,0.9858419,0.00042644143
0.9771402,4.4703484e-07,6.130338e-05,1.3381243e-05,4.172325e-06,0.0006222129,0.001590848,8.970499e-06,8.511543e-05,0.031279087
0.97423077,2.9802322e-08,5.543232e-06,1.0430813e-06,7.4505806e-07,0.0002425015,0.00036770105,0.000113874674,1.7017126e-05,0.009096801
0.01860395,0.0,1.8060207e-05,2.3841858e-07,1.0788441e-05,9.596348e-06,0.0012844205,0.98684,0.0002130568,0.00022441149
0.00042068958,1.8924475e-05,0.0007494688,0.00013518333,6.4998865e-05,0.999941,0.0013682842,0.000800401,0.00021612644,0.00011408329
0.010975957,2.592802e-06,2.5749207e-05,1.41859055e-05,2.115965e-06,0.0016961098,0.033368856,0.0007276535,0.93745923,0.0016151667
0.0015553236,9.62615e-06,0.00093603134,8.165836e-06,9.718537e-05,0.00017592311,0.0012784302,2.9027462e-05,0.9901029,0.0066061616
7.838011e-06,1.21593475e-05,0.98880863,8.910894e-06,0.0014251769,0.0005118549,0.014828354,4.4703484e-06,0.9716027,3.8594007e-05
8.940697e-08,0.0009431839,1.9073486e-05,0.99986076,1.4543533e-05,0.012862533,0.31196827,0.0,0.4031474,0.00033789873
5.2839518e-05,4.172325e-07,0.0040854514,8.392334e-05,0.00043711066,3.5107136e-05,0.0015755594,7.987022e-06,0.0015925467,0.999218
0.0691382,5.2154064e-06,0.007380992,9.486079e-05,0.0004772842,0.000382334,0.0036732852,4.133582e-05,0.763988,0.0075085163
0.00431633,9.834766e-07,0.00010693073,5.555153e-05,5.325675e-05,0.0016352236,0.009814203,0.0001269877,0.027658135,0.15971997
0.9890271,0.0,8.547306e-05,2.1457672e-06,8.493662e-06,0.00018274784,0.0012767911,0.0019185543,7.459521e-05,0.0019674003
0.98174036,0.0,8.434057e-06,2.771616e-06,8.6426735e-07,0.0003001094,0.00064367056,0.00015044212,0.00019446015,0.0078104436
0.00034287572,0.500152,0.0015180409,0.0023153722,6.9111586e-05,0.031316727,0.033911794,7.009506e-05,0.35722393,0.19139883
0.0002553165,5.7816505e-06,0.00015512109,2.0623207e-05,1.5497208e-06,9.23872e-05,0.0014031827,9.8615885e-05,0.018863201,0.9276972
1.7493963e-05,1.758337e-06,0.99768513,0.00012722611,0.32417136,0.0003026724,0.011060834,0.001268506,0.9622341,2.1994114e-05
0.82308644,1.7881393e-07,0.30673903,4.7683716e-07,3.0696392e-06,3.2901764e-05,0.0014490783,0.0032577515,0.0005941093,0.00044336915
1.2516975e-06,0.0039377213,0.03529173,0.9985565,0.00028795004,0.00022605062,0.0018262267,5.6028366e-06,0.38880017,0.0038906932
0.0001668036,0.98732495,0.0005404055,0.0010002851,1.7404556e-05,0.033940285,0.00534454,1.001358e-05,0.06247735,0.006928444
0.0023282468,1.758337e-06,9.018183e-05,1.475215e-05,1.4901161e-06,0.00043529272,0.0038366914,0.00041240454,0.9911662,0.0014667809
2.861023e-06,2.771616e-06,0.99793345,0.0027655065,7.274747e-05,0.08095053,0.0050283372,2.1785498e-05,0.38682196,1.92523e-05
0.6281033,2.0861626e-07,1.5676022e-05,6.467104e-06,2.0861626e-07,0.0006978214,0.0010183156,0.0024763346,0.688163,0.00081574917
0.65941924,0.0,2.399087e-05,4.4703484e-07,1.7881393e-06,8.401275e-05,0.0005149543,0.2725848,0.00034838915,0.0028599799
0.96030146,0.0,8.583069e-06,0.0,8.940697e-08,1.257658e-05,0.0001848638,0.01228261,9.23872e-07,0.00019156933
2.9802322e-08,7.4505806e-06,2.3275614e-05,1.0073185e-05,9.536743e-07,0.99999094,0.008505225,5.9604645e-07,0.9508275,3.427267e-06
0.57383263,0.0,3.6478043e-05,2.682209e-07,7.1525574e-07,0.00016090274,0.001213342,0.000111073256,0.6121509,0.00020051003
0.0062536597,2.0861626e-07,0.00053697824,8.34465e-06,3.3557415e-05,0.00019532442,0.0014639199,0.004839152,0.94339436,0.008654565
0.08919287,3.5762787e-07,0.0004068911,6.4074993e-06,6.4969063e-06,0.00030115247,0.0014583468,5.0216913e-05,0.914675,0.007567376
0.0,2.8550625e-05,0.000508517,3.1650066e-05,2.3007393e-05,0.9999992,0.00820002,1.4603138e-06,0.49963242,1.591444e-05
5.3942204e-06,0.0006220341,0.011341244,0.08255476,0.00053209066,0.034392506,0.8738959,5.6028366e-05,0.005435288,0.010090351
0.635781,7.1823597e-06,9.6559525e-05,5.275011e-05,1.3709068e-06,0.0003170371,0.0014669895,0.0043893456,6.338954e-05,0.45636413
6.464124e-05,1.0728836e-06,0.00019952655,0.00019931793,2.0444393e-05,5.39124e-05,0.0021099746,0.99120533,0.0012742579,0.0041377246
5.066395e-07,2.9802322e-08,0.00020927191,0.0007273257,0.9986883,0.00017181039,0.0054047406,7.6293945e-06,0.09068045,0.0013992488
2.9593706e-05,0.06633073,0.0135217905,0.0002270937,0.0007891655,0.991464,0.15703824,0.00056800246,0.09496158,0.00201419
0.96973574,1.4901161e-07,1.6570091e-05,9.089708e-06,6.7949295e-06,0.0015669465,0.003011316,8.046627e-06,0.00261724,0.0038725138
1.8775463e-06,1.1920929e-07,4.142523e-06,0.9999789,2.5838614e-05,0.0008176267,0.0013135672,0.0,0.03904757,4.172325e-07
0.00078096986,3.8444996e-06,0.016364425,6.443262e-05,0.011015803,0.00063690543,0.008309782,0.00044354796,0.8611136,0.014691353
0.00063213706,2.0861626e-07,0.9736842,1.591444e-05,0.000998646,0.00012797117,0.008008331,0.0035151541,0.30420688,0.0023873448
0.0028904974,2.2262335e-05,3.0368567e-05,9.000301e-06,1.6987324e-06,0.0015884638,0.98746955,0.0003902316,0.0039109886,0.0014877319
0.50996685,3.9041042e-06,0.00012758374,2.2500753e-05,2.1755695e-06,0.0012907088,0.004232824,1.3917685e-05,0.41520727,0.020962507
2.1278858e-05,0.0008324683,0.00087073445,0.0015759766,0.00023913383,0.8856822,0.8037359,8.08239e-05,0.014481187,0.00845179
6.181002e-05,1.6391277e-06,1.963973e-05,3.0577183e-05,7.480383e-06,0.9995767,0.1239115,1.4454126e-05,0.0028330386,0.00020480156
0.9408562,5.9604645e-07,5.8233738e-05,1.6480684e-05,0.00018420815,0.0056623816,0.024500012,9.2595816e-05,0.00048783422,0.0067173243
0.06048125,1.4603138e-06,0.0076366067,0.00017887354,0.0001219213,0.0003592372,0.0038595498,1.3202429e-05,0.013787627,0.5546507
3.5613775e-05,0.000102847815,0.00256899,0.00057703257,0.00010377169,0.9999713,0.0024622977,0.000164181,0.075749785,0.00058966875
0.98471546,0.0,3.4362078e-05,2.3543835e-06,1.013279e-06,0.00018805265,0.0008967221,0.008564681,0.0001193583,0.00054606795
2.9802322e-08,3.5762787e-06,0.98709774,0.9997902,4.1782856e-05,0.0011354387,0.01113385,2.9802322e-07,0.20083538,2.0861626e-07
0.6110093,5.364418e-07,3.7431717e-05,7.6293945e-06,7.390976e-06,0.0015391111,0.001062423,0.00015336275,0.6281583,0.001590848
0.4912553,2.9802322e-08,2.1785498e-05,3.0696392e-06,8.6426735e-07,6.863475e-05,0.000842154,0.8190447,0.00014340878,0.0002770126
0.00076776743,0.0,4.386902e-05,1.4603138e-06,2.3543835e-06,5.429983e-05,0.00080794096,0.4518319,6.16312e-05,0.7376393
0.4313453,2.682209e-07,0.00018361211,3.3527613e-05,1.7434359e-05,0.0010705292,0.0027073324,3.3974648e-05,0.5592819,0.0044524074
0.9747311,4.7683716e-07,0.00018179417,2.0056963e-05,2.1457672e-06,0.0015689135,0.0035998821,0.00038561225,0.00023794174,0.012462914
0.6257076,3.2186508e-06,3.385544e-05,2.4408102e-05,0.00012421608,0.005243212,0.0073029697,1.0430813e-05,0.008870602,0.4151765
0.0041164756,2.9802322e-08,0.00037908554,0.00021779537,0.9833596,0.000102996826,0.0008043349,8.5532665e-06,0.0025680661,0.0043624043
0.982804,2.9802322e-08,1.7017126e-05,6.3180923e-06,1.6987324e-06,0.00014725327,0.00068342686,0.00086927414,5.3346157e-05,0.010766804
0.00014579296,0.019547343,0.002356857,0.00042319298,0.00014817715,0.0060331225,0.40859413,5.096197e-06,0.6369797,0.04908204
0.91179717,5.066395e-07,5.4240227e-05,4.8726797e-05,7.659197e-06,0.0026984513,0.0038891435,5.841255e-06,0.116853386,0.0016882718
0.0031897724,2.026558e-06,1.1265278e-05,3.0398369e-06,1.5497208e-06,0.0007046163,0.007677734,3.5762787e-06,0.98182166,0.0050851405
8.940697e-08,0.99258137,0.0014333725,0.99897194,0.00034168363,0.008699685,0.014230669,8.940697e-08,0.843539,7.289648e-05
0.9894321,8.940697e-08,3.4570694e-05,5.9604645e-07,5.662441e-07,0.00046551228,0.0018822253,0.0010225177,0.00014534593,0.00053685904
0.6947066,8.940697e-08,1.4483929e-05,1.5199184e-06,0.0,4.673004e-05,0.000184834,0.007812321,1.4901161e-06,0.17317563
0.9942714,0.0,5.7816505e-06,8.940697e-08,3.5762787e-07,0.00020930171,0.00063961744,0.00012624264,0.00017088652,0.00015047193
0.93768775,8.940697e-08,4.1872263e-05,6.8843365e-06,7.3611736e-05,0.00089496374,0.0025771856,0.00012814999,0.026096553,0.00446707
0.35202622,2.9802322e-07,5.0365925e-06,6.914139e-06,2.115965e-06,0.0019848943,0.0039489567,0.00016698241,0.04435903,0.44170907
0.9269896,1.1026859e-06,0.00033935905,4.0739775e-05,8.34465e-07,0.00085380673,0.0033851862,0.00014874339,8.204579e-05,0.018888474
0.97985184,0.0,5.5640936e-05,1.4007092e-06,3.2782555e-07,0.0017482936,0.002240926,3.7908554e-05,0.0004364252,0.0069380403
9.387732e-06,0.0,2.0861626e-07,1.7881393e-07,0.0,0.0,9.208918e-06,0.0,9.000301e-06,0.9999783
0.00014573336,0.0,3.0696392e-06,0.0,1.4901161e-07,0.0,7.4505806e-07,2.9802322e-08,6.2674284e-05,0.99999785
0.0001398325,0.9066194,0.017701775,0.7935984,0.00039595366,0.06270209,0.037731767,2.3543835e-06,0.0048907697,0.006776005
0.00026503205,0.9982432,0.0032995045,0.00010317564,0.00020596385,0.009890199,0.001105696,4.887581e-05,0.022630125,0.0034839213
0.0002387762,1.4513731e-05,0.016537338,0.0015537739,0.99645257,0.00038591027,0.0075837374,5.7816505e-06,0.03750539,0.0021289885
0.9949943,0.0,7.5101852e-06,2.0861626e-07,1.1920929e-07,0.00013646483,0.00040596724,0.0002259314,1.385808e-05,0.00043818355
0.0005633533,4.440546e-06,1.9490719e-05,4.23491e-05,8.374453e-06,0.00043553114,0.10229039,0.00027787685,0.9754158,0.00091037154
0.99356025,0.0,1.257658e-05,2.026558e-06,5.9604645e-08,0.0005801022,0.0009944439,1.9669533e-06,0.00015112758,0.00038415194
3.1888485e-06,7.4505806e-07,4.2289495e-05,0.9999573,1.1175871e-05,0.0013641715,0.005857736,0.0,3.59118e-05,0.00017943978
1.1891127e-05,1.4901161e-07,0.997296,9.146333e-05,0.8691268,0.00013124943,0.004378438,0.00019156933,0.9110426,0.00018778443
3.2693148e-05,1.7523766e-05,0.042107195,0.00038975477,5.671382e-05,0.0002632141,0.0018202662,1.013279e-06,0.00075799227,0.82763404
0.00014573336,0.0,3.0696392e-06,0.0,1.4901161e-07,0.0,7.4505806e-07,2.9802322e-08,6.2674284e-05,0.99999785
7.599592e-06,8.940697e-08,5.3942204e-06,0.99997663,2.682209e-07,0.00025749207,0.0010261238,0.0,3.1888485e-05,6.854534e-07
0.92646956,1.7881393e-07,5.4329634e-05,3.1888485e-06,9.208918e-06,0.00038576126,0.0042539835,0.0042995512,7.686019e-05,0.005294621
0.04254487,5.662441e-07,9.045005e-05,6.0796738e-06,8.940697e-06,0.00034320354,0.0012938082,0.00044372678,0.9729339,0.0013918877
0.9923079,0.0,4.5895576e-06,8.940697e-08,9.23872e-07,0.00025245547,0.0005661249,0.00013372302,6.553531e-05,0.001066953
0.97795635,2.9802322e-08,0.00010338426,1.3500452e-05,9.5665455e-06,0.0022661686,0.0018100739,7.5101852e-06,0.0004889071,0.0010724068
0.011895627,3.2812357e-05,2.5063753e-05,8.314848e-06,2.6524067e-06,0.011620045,0.9650068,0.00011023879,0.0029921532,0.001825273
0.011435479,2.2351742e-06,0.0011622608,0.16487107,0.019880831,0.00037041306,0.0036698878,0.0002810061,0.1141499,0.40484676
0.09787825,2.3841858e-07,1.13248825e-05,2.4735928e-06,4.157424e-05,0.00065496564,0.0021970272,8.46982e-05,0.9596181,0.0020073056
0.9191084,2.9802322e-08,1.04904175e-05,1.6987324e-06,8.404255e-06,0.00037503242,0.0016153753,0.009062111,8.6307526e-05,0.005001813
3.5762787e-07,0.010132432,0.36425513,0.9999652,3.1024218e-05,0.0028479695,0.002809316,2.9802322e-08,0.039717913,1.9043684e-05
4.7683716e-07,0.004696876,0.033165365,0.99966776,0.043780833,0.00068596005,0.075721204,1.9967556e-06,0.8945075,5.6266785e-05
2.1457672e-06,1.8179417e-06,0.9713398,0.9994552,3.2782555e-07,0.0016677678,0.005741656,2.9802322e-08,0.0014436841,7.867813e-06
0.8632132,6.2584877e-07,0.0035592914,1.7374754e-05,3.311038e-05,0.00052946806,0.0053076744,0.007431358,0.04801157,0.011768311
0.022452563,0.0,8.7320805e-06,1.013279e-06,3.5762787e-07,0.00042247772,0.0021311343,6.7949295e-06,0.98704505,0.00033706427
0.00584358,7.57575e-05,4.184246e-05,3.6656857e-06,3.516674e-06,0.00083759427,0.027641594,5.841255e-06,0.91671705,0.015544832
0.013811678,3.5762787e-07,3.7431717e-05,1.9103289e-05,2.3931265e-05,0.00013360381,0.00079005957,0.0002310276,0.9822707,0.0058262944
0.99270284,0.0,1.3798475e-05,3.8444996e-06,5.465746e-05,0.0005468726,0.0009905994,0.0001322627,0.00038328767,0.0028918087
1.40964985e-05,0.053925395,0.0063919723,0.9997169,0.0015966594,0.011097789,0.060503006,6.2584877e-07,0.85046303,2.4914742e-05
2.3841858e-07,0.00052267313,0.623705,3.6537647e-05,8.493662e-06,0.016480088,0.8395603,1.4007092e-06,0.96728736,2.130866e-05
0.54407394,5.9604645e-07,5.6624413e-05,1.1175871e-05,3.1292439e-06,0.0007304847,0.0014088154,0.00020691752,0.7795546,0.00044453144
0.9888933,1.7881393e-07,5.558133e-05,1.847744e-06,1.0430813e-06,0.0010588765,0.0016152263,0.0002374649,7.1525574e-05,0.0006439984
9.4771385e-06,3.1888485e-06,8.481741e-05,0.9999658,0.0003002584,0.0005400479,0.0017763674,2.9802322e-08,0.14752248,2.4497509e-05
8.672476e-06,4.2915344e-06,0.009294212,0.99993455,0.028329283,0.0006480813,0.0014781952,5.9604645e-08,0.0024762452,1.6719103e-05
0.002287209,0.91002357,0.00074607134,2.8014183e-06,5.275011e-06,0.0022372603,0.0857763,7.95722e-06,0.0006810725,0.005340874
0.019484252,5.9604645e-08,5.811453e-06,8.34465e-07,1.975894e-05,0.00096309185,0.001240015,0.00046557188,0.9858285,0.00016510487
5.248189e-05,0.047622263,0.0003901422,0.0042107105,3.954768e-05,0.04598099,0.6401926,4.798174e-06,0.23943654,0.02727753
0.0010364354,0.9270333,0.0045176446,1.3291836e-05,2.0474195e-05,0.0075419843,0.013840735,3.2186508e-06,0.009814441,0.0076865256
0.9922858,0.0,1.3649464e-05,2.682209e-07,1.7881393e-07,0.0007701516,0.0010055304,4.7683716e-07,0.002280265,0.00029984117
0.00014573336,0.0,3.0696392e-06,0.0,1.4901161e-07,0.0,7.4505806e-07,2.9802322e-08,6.2674284e-05,0.99999785
0.046861053,3.6597252e-05,0.0013426244,0.00028014183,3.784895e-06,0.0006624162,0.0068089366,0.0033064783,0.06853607,0.71149534
0.007449031,2.0861626e-07,3.3289194e-05,1.5199184e-06,7.95722e-06,0.00046366453,0.0009961128,0.00033023953,0.995487,0.0001693368
0.0016677678,2.682209e-07,0.016126126,1.847744e-06,0.00768432,0.00016140938,0.0021555424,0.00012347102,0.0018179417,0.3927551
0.9972757,0.0,4.7385693e-06,5.9604645e-08,5.9604645e-08,0.0007171035,0.0014802516,2.670288e-05,6.711483e-05,0.00020489097
0.99469674,0.0,6.109476e-06,4.172325e-07,1.4007092e-06,0.00011715293,0.0006644428,0.00030997396,1.5944242e-05,0.0017679334
0.0020632744,7.033348e-06,5.7429075e-05,6.535649e-05,1.6123056e-05,0.00031358004,0.0017258227,0.00020331144,0.9963505,0.000792712
0.00488168,0.21951497,0.0012805462,0.00025880337,1.8715858e-05,0.005245298,0.08643922,2.0205975e-05,0.028313309,0.5145681
0.036147684,7.212162e-06,0.00072547793,2.115965e-06,3.1292439e-06,0.0004839003,0.0035497546,0.0005031824,0.9449091,0.0070828497
4.9471855e-06,0.036801368,0.0041792393,0.0032745004,0.0021503568,0.9983059,0.039794624,0.0016214848,0.28652063,0.0011113882
0.00016713142,7.4625015e-05,0.0021230876,4.887581e-05,6.7949295e-06,0.25792098,0.028469115,8.0257654e-05,0.07325834,0.2044352
0.013191193,1.1920929e-07,1.3113022e-06,2.7120113e-06,2.771616e-06,0.00023892522,0.000947237,2.4735928e-06,0.99268615,0.00041782856
0.9205952,7.4505806e-07,0.00082474947,6.854534e-07,1.1920929e-06,0.00038558245,0.001373738,7.0393085e-05,0.0001872778,0.043985724
0.008208871,0.0,0.9971291,7.7188015e-06,5.364418e-07,5.9723854e-05,0.0034278333,5.477667e-05,0.00021278858,0.000102728605
0.97442436,2.0861626e-07,0.00012236834,1.4394522e-05,1.1324883e-06,0.0026024282,0.0037438273,1.0430813e-05,0.0024319887,0.0010689497
0.6124619,3.5762787e-07,5.3197145e-05,5.6028366e-06,2.9802322e-07,0.00052142143,0.0034459531,0.0047562122,0.19618353,0.010398209
1.7881393e-07,0.9964099,7.6919794e-05,0.0014392138,0.00089240074,0.0004697442,0.00079104304,1.2516975e-06,0.6078037,0.00426051
1.013279e-05,0.0,1.0430813e-06,0.999991,1.7881393e-07,0.000425905,0.0010319948,0.0,5.0902367e-05,4.7683716e-07
6.8843365e-06,0.00031915307,0.09314242,0.6150633,0.002326697,0.00040999055,0.006877333,0.00066652894,0.9879183,0.00058078766
0.99805254,0.0,3.5464764e-05,1.4007092e-06,9.834766e-07,0.00028964877,0.00054347515,1.4305115e-06,1.6629696e-05,0.00031384826
0.009096444,9.834766e-06,0.0018129349,1.630187e-05,1.975894e-05,0.9979625,0.028259248,0.00013163686,0.0027130246,0.00037753582
0.98913175,8.940697e-08,1.835823e-05,5.5998564e-05,2.0861626e-06,0.00043594837,0.0012904406,0.00012096763,0.0001308322,0.009667069
5.662441e-07,4.1157007e-05,0.00024986267,8.484721e-05,1.3709068e-05,0.9993645,0.010723025,1.7017126e-05,0.96412045,3.4570694e-05
4.2438507e-05,3.913045e-05,0.00020194054,0.9999757,6.443262e-05,0.0031357706,0.0085606575,0.0,0.0024268925,1.4156103e-05
1.7881393e-07,0.9720265,0.0018354356,0.99929416,8.562207e-05,0.0028246045,0.0020510852,4.4703484e-07,0.29856205,0.00048100948
4.8190355e-05,1.0341406e-05,0.00049221516,4.3094158e-05,5.0246716e-05,0.9999974,0.002616018,2.9474497e-05,0.0016874671,2.7924776e-05
0.035162628,8.940697e-08,3.5107136e-05,6.1392784e-06,1.692772e-05,0.00077077746,0.0018468201,5.349517e-05,0.9758197,8.818507e-05
0.07603136,2.9802322e-08,2.4437904e-06,1.1920929e-06,1.4901161e-07,0.000116467476,0.0002900064,7.733703e-05,0.90292823,0.0028155446
0.0053181946,1.4901161e-07,0.00043347478,0.0002233088,0.022725344,4.711747e-05,0.0040854514,0.02823925,0.9491879,0.0011768937
0.0031216443,1.3709068e-06,0.0076459944,2.297759e-05,7.542968e-05,8.714199e-05,0.00060522556,8.749962e-05,0.99430317,0.0010595024
0.89717495,1.1920929e-07,5.8799982e-05,1.1920929e-07,1.9073486e-06,0.009362847,0.00043696165,8.627772e-05,0.00090798736,0.0074693263
0.9841198,2.9802322e-08,3.20971e-05,4.9233437e-05,1.8715858e-05,0.0026954114,0.0028594136,4.351139e-05,0.00014671683,0.0016606748
