0,1,2,3,4,5,6,7,8,9
0.9574077,5.364418e-07,0.0001642108,0.00029161572,0.00017756224,0.011383116,0.0022234619,6.610155e-05,0.01668045,0.005063951
0.7954593,5.9604645e-08,9.0658665e-05,0.00013750792,2.6524067e-06,0.004247278,0.0032303333,0.1161443,0.00022679567,0.05375755
9.6678734e-05,2.682209e-07,0.00050115585,0.0010210872,0.9435007,0.99946356,0.0017768443,1.937151e-05,9.313226e-05,3.7252903e-06
0.0,0.00046253204,9.715557e-06,0.9999485,2.0861626e-07,0.0056193173,0.9998895,0.0,3.3080578e-06,2.682209e-07
0.003502518,0.0,8.916855e-05,0.99978757,6.273389e-05,0.009903252,0.0046878755,1.9490719e-05,0.0006842017,2.8848648e-05
0.99273145,0.0,2.9087067e-05,5.0991774e-05,1.0818243e-05,0.0009908676,0.00024241209,0.02018246,5.9604645e-06,0.00041544437
0.018867522,8.34465e-07,3.567338e-05,0.0009099841,0.000174433,0.002506107,0.0058680773,0.0003106892,0.979576,0.0013108253
2.6524067e-06,5.662441e-07,0.00011733174,0.9999876,0.9852597,0.0029503703,0.0015775859,8.34465e-07,0.0021701455,2.3841858e-07
0.00012022257,4.351139e-06,0.0014389157,0.08995107,6.246567e-05,0.0010685623,0.0054409206,0.0001412034,0.9995929,0.00014838576
2.8908253e-06,6.3598156e-05,3.156066e-05,0.0001655519,0.0,0.008022189,0.9999273,4.044175e-05,0.0021766424,0.00031927228
0.0040062666,1.6391277e-06,0.606814,0.00016656518,0.00016099215,0.0017615855,0.0017508566,0.00019544363,0.9944253,5.313754e-05
0.00522545,1.1920929e-07,0.00020357966,5.1170588e-05,0.000579685,0.00035491586,0.0024282932,0.00017750263,0.99880725,2.3633242e-05
9.23872e-07,0.35768887,0.0017290711,0.9980918,2.1219254e-05,0.0071894526,0.015907258,0.0,0.8793839,0.0003349483
7.158518e-05,0.9971186,0.01469481,0.0032835305,5.0842762e-05,0.010517091,0.01658985,5.4329634e-05,0.12710801,0.010246426
0.064512044,0.0,4.1782856e-05,4.4554472e-05,5.4568052e-05,0.0003273189,0.0017716289,0.0014390051,0.9841646,0.00010097027
0.0044479966,0.29710498,0.0035090744,0.00033900142,4.3958426e-05,0.01310721,0.12492576,0.00032934546,0.23649052,0.086503685
0.00015053153,1.642108e-05,0.00048321486,0.99944997,0.0012378693,0.014136583,0.007279694,3.0100346e-06,0.40643024,2.399087e-05
0.99679095,8.940697e-08,0.00011116266,0.00011885166,6.943941e-06,0.0034287274,0.00042885542,8.139014e-05,0.0013338625,0.00072708726
0.0,4.2945147e-05,0.9853811,0.00010243058,0.052312285,0.09996462,0.9951064,0.00040379167,0.6974575,4.0233135e-06
1.4841557e-05,0.00013518333,0.00017136335,0.00011923909,6.5863132e-06,0.0013481379,0.7754824,0.006342083,0.9819471,0.00012755394
0.99710953,8.940697e-08,6.920099e-05,1.7046928e-05,3.606081e-06,0.0032105744,0.0015145838,0.0016192198,0.00010111928,0.005928278
0.26299077,1.2755394e-05,0.7629522,0.2375423,7.3611736e-06,0.0018113554,0.0021208525,0.0006417036,0.00021141768,0.0027944148
0.9981929,0.0,0.00012508035,4.172325e-05,2.9802322e-06,0.0022859573,0.0010769367,0.00029993057,0.00021532178,0.0015309751
0.015743107,0.0008780658,0.025552481,0.0002886355,3.1411648e-05,0.0043176413,0.0039438903,0.00022754073,0.9688914,0.031419665
0.0141227245,3.963709e-06,0.00020959973,0.00031012297,0.0003478229,0.003870517,0.008835733,0.000608623,0.993111,0.00095272064
7.4505806e-07,0.00018113852,0.024905056,2.6762486e-05,9.0539455e-05,0.98533404,0.059455514,6.0260296e-05,0.0077542663,0.0010972023
2.9802322e-08,0.00023448467,5.9455633e-05,9.685755e-06,0.0,0.021141678,0.9996806,0.0049453676,1.0788441e-05,0.000100791454
0.9417404,0.0,0.00014543533,5.5730343e-06,2.0861626e-07,0.0026193857,0.00069746375,0.4181966,2.6792288e-05,0.00057309866
0.013107479,2.9802322e-07,0.00011834502,6.198883e-06,3.5762787e-07,0.002280265,0.0058035553,0.9869386,0.024905652,0.0016763806
0.00012338161,0.88953316,0.00755623,0.19935346,5.504489e-05,0.007279068,0.016321272,3.606081e-06,0.9295461,0.102414995
0.00048473477,0.0010049045,2.425909e-05,6.93202e-05,1.0430813e-06,0.019737065,0.9684757,0.00023278594,0.0128109455,0.045866907
8.940697e-08,0.00047439337,0.00013244152,2.4139881e-05,2.7418137e-06,0.026557326,0.99974036,5.7816505e-06,0.1428836,2.2441149e-05
0.08042705,5.4836273e-06,0.0008355379,0.00022244453,3.5464764e-06,0.03134671,0.98524487,7.161498e-05,0.000115543604,0.00072839856
0.000382334,1.3709068e-06,0.0006225109,0.99964905,0.00030595064,0.0051665306,0.010120034,5.927682e-05,0.00018808246,0.00020962954
0.8737346,7.748604e-07,0.00076946616,3.5226345e-05,3.85046e-05,0.0073061287,0.0035999417,0.00031536818,0.37994584,0.0018132925
0.9994918,0.0,0.0001835525,1.0699034e-05,1.7881393e-07,0.0010782778,0.00014477968,3.9577484e-05,4.643202e-05,0.00017419457
0.9116607,5.662441e-07,0.00010249019,2.4467707e-05,4.6789646e-06,0.007537186,0.0020660758,5.543232e-05,0.23455226,0.011293203
0.99560905,2.9802322e-07,0.00031158328,8.428097e-05,9.208918e-06,0.0065428913,0.0029202402,0.0006149411,0.0003644824,0.00449574
0.99214053,4.7683716e-07,0.00016742945,7.7039e-05,7.599592e-06,0.015314043,0.005171299,0.00050753355,0.0004837215,0.008143246
0.0012364984,4.172325e-07,8.967519e-05,0.00015038252,1.0758638e-05,0.0018506944,0.0050314665,0.0025983453,0.9989307,8.460879e-05
0.00010406971,1.7523766e-05,0.9510608,4.261732e-06,2.4706125e-05,0.00022831559,0.0022072792,0.000300169,0.9359193,6.252527e-05
0.7238337,1.0550022e-05,0.0004975498,0.00019198656,4.5269728e-05,0.0075102746,0.004314333,8.636713e-05,0.40421796,0.010089308
1.4901161e-07,4.4703484e-06,0.0022565126,5.364418e-06,9.62615e-05,0.9999245,0.7211169,5.4955482e-05,0.19815245,4.23193e-06
5.248189e-05,0.9969148,0.0042541623,0.004910916,8.4102154e-05,0.012114167,0.0047507584,3.4332275e-05,0.97239304,0.000890404
0.0008895397,4.7683716e-07,6.133318e-05,5.3197145e-05,8.755922e-05,0.0005323589,0.002879262,6.2942505e-05,0.99902153,0.00017908216
0.0055787265,1.4901161e-07,1.2904406e-05,7.748604e-07,0.0,0.0016713738,0.0042205453,0.9986737,0.0014249682,0.0008031428
0.23601091,4.9233437e-05,0.023523867,0.00012227893,0.0023955703,0.002708763,0.0016418397,3.8951635e-05,0.9117876,0.003115505
0.06724787,2.7626753e-05,0.0014689863,0.0001989007,4.8428774e-05,0.0065778494,0.010593176,0.0010353327,0.6289991,0.25725353
6.1690807e-06,0.9871234,0.033147424,0.0028663874,0.00011065602,0.021615982,0.006384313,4.6759844e-05,0.4595319,0.001834929
0.99942386,0.0,1.54078e-05,5.185604e-06,1.7881393e-07,0.0013526678,7.57277e-05,4.6521425e-05,0.00038713217,6.8962574e-05
0.0021283329,4.7683716e-07,0.00042915344,5.671382e-05,1.4722347e-05,0.1134738,0.041143566,0.0033991039,0.0012869537,0.3014456
3.2126904e-05,0.99861705,0.0028877854,0.0003850758,6.93202e-05,0.025859088,0.0082473755,3.966689e-05,0.022483706,0.0009765327
2.9802322e-08,0.0021023452,0.0008177757,0.0002462268,0.00014859438,0.9999999,0.0031211674,7.426739e-05,0.6560784,1.7851591e-05
0.47744972,8.34465e-07,2.604723e-05,5.7071447e-05,1.7881393e-06,0.013638288,0.010335684,0.021074384,0.6849104,0.0011843145
0.9769956,6.3180923e-06,0.0036346614,8.499622e-05,1.6331673e-05,0.0077793,0.0017579496,0.00010037422,0.016545385,0.007781774
6.1541796e-05,0.9779848,0.0033645928,0.0028081834,0.00010553002,0.033487886,0.05549106,9.864569e-06,0.09287515,0.024162024
0.8226985,8.34465e-06,5.5998564e-05,1.424551e-05,8.046627e-07,0.00421834,0.00090029836,8.2701445e-05,0.117813766,0.070869
2.682209e-07,0.999908,0.00061678886,0.0009275079,0.0023891032,0.004265696,0.00045377016,0.0019299388,0.002757281,0.003908664
0.8130523,4.8577785e-06,0.00044599175,2.4080276e-05,9.924173e-06,0.015135944,0.01076287,0.07152611,0.0068612695,0.033083797
0.00065526366,0.99671936,0.003496319,0.0008369982,1.7434359e-05,0.010977089,0.0039596856,2.503395e-06,0.116387814,0.02240175
0.9972167,0.0,4.529953e-05,7.545948e-05,1.013279e-06,0.00699687,0.0005802512,0.00047904253,0.0004272461,0.000106304884
0.025276244,4.827976e-06,0.00010845065,2.0563602e-05,5.3048134e-06,0.68093675,0.008200318,8.8602304e-05,0.40716228,0.0023784935
3.5762787e-07,3.5762787e-07,0.00045526028,0.01605481,0.99558175,0.9999794,0.004778236,2.7090311e-05,0.00023260713,2.2947788e-06
2.9802322e-07,8.940697e-07,7.748604e-07,1.1026859e-06,5.9604645e-08,0.00068080425,0.00070515275,1.1920929e-07,0.12335637,0.9969662
0.011778951,0.003825277,0.0005681515,0.0007300377,1.4305115e-06,0.0045241714,0.029893786,5.6922436e-06,0.6040658,0.42910537
0.9814385,0.0,0.000364542,9.834766e-06,6.2286854e-06,0.0038775802,0.001980126,0.022533089,0.00032806396,0.0008030236
0.9665443,3.5762787e-07,0.00015115738,1.9192696e-05,1.4007092e-06,0.018353313,0.0029163659,0.070700586,0.0073391795,0.0017211437
0.0007492006,0.0006260276,0.03003326,0.00014722347,0.00031343102,0.0014000833,0.014232397,0.0012979805,0.98532104,0.021004796
0.00029066205,1.7881393e-07,0.00064501166,0.0001977086,0.0008663833,0.0024167597,0.003753513,0.44354296,0.89469683,0.0030058026
0.021720886,0.0,1.1444092e-05,2.8908253e-06,8.940697e-08,0.00036910176,0.00040891767,0.99855196,1.30832195e-05,0.00013127923
0.41336986,4.351139e-06,4.351139e-05,8.958578e-05,1.1116266e-05,0.00477612,0.006115824,0.0006274879,0.7574077,0.021399409
0.99082947,1.1920929e-07,6.914139e-05,1.707673e-05,6.3180923e-06,0.013147533,0.0046122074,0.0017957985,0.0019192994,0.0030587912
9.119511e-06,3.5107136e-05,0.00018721819,0.9997149,8.946657e-05,0.009043187,0.0046124756,2.8908253e-06,0.0030626357,1.4990568e-05
0.0011219382,5.185604e-06,7.408857e-05,0.999066,4.142523e-06,0.0033084452,0.015522003,4.1007996e-05,0.00020927191,7.942319e-05
0.00249812,4.3213367e-06,0.000113636255,0.99860334,8.761883e-06,0.008650005,0.008801103,2.56598e-05,0.0002990961,0.00023534894
0.0036387742,2.771616e-06,7.611513e-05,0.00018805265,3.170967e-05,0.0016544163,0.013684511,0.00011751056,0.991024,0.00066524744
0.4713121,8.940697e-08,0.00010600686,1.3440847e-05,1.7881393e-07,0.0052773356,0.006342262,0.8690447,0.00039809942,0.009173095
0.9900316,0.0,0.0005839765,1.3053417e-05,3.5762787e-07,0.0040193796,0.0016068816,0.010854512,0.0003556013,0.0024564266
0.72985095,0.0,9.745359e-06,1.0728836e-06,1.7166138e-05,0.0033355653,0.0008762479,0.069583595,0.045388013,2.989173e-05
0.7013234,2.682209e-07,5.7905912e-05,0.1308069,1.090765e-05,0.007989436,0.010903716,0.0010949969,0.004600644,0.00069868565
0.99411553,8.940697e-08,5.5283308e-05,8.895993e-05,1.2397766e-05,0.0071378946,0.0014392734,0.0028485954,0.00086838007,0.0019045174
0.14493877,0.0,5.2660704e-05,0.0002785623,0.93647444,0.00243482,0.00067922473,5.939603e-05,3.0517578e-05,1.3798475e-05
0.99045026,0.0,0.0011140406,1.2665987e-05,1.9073486e-06,0.0023807585,0.0025175512,0.0039002895,0.00027677417,4.8458576e-05
0.9953819,0.0,8.5800886e-05,5.751848e-06,8.34465e-07,0.011351049,0.0019315779,0.0011864305,0.00019451976,0.001570195
0.0020833015,2.3245811e-06,0.0040182173,0.0005342066,0.12823135,0.00095775723,0.0023936033,0.001134634,0.9857924,0.0002297163
0.98975384,7.748604e-07,0.0057885647,0.00020569563,1.4066696e-05,0.0049295723,0.0026246905,0.006348729,0.00020125508,0.00508672
2.4110079e-05,5.8740377e-05,0.00039848685,0.00086283684,5.158782e-05,0.598028,0.720744,0.00015887618,0.96749985,0.00018376112
7.817149e-05,0.000243783,0.0017034411,0.08996853,0.058744967,0.014055878,0.015706033,7.516146e-05,0.04297781,0.50234807
0.0022494793,4.5508146e-05,0.00031590462,0.99890184,0.00042703748,0.010508746,0.015618801,3.993511e-06,0.01222387,7.560849e-05
2.1100044e-05,0.98636603,0.01516223,0.18228048,0.068875015,0.01742503,0.008515,2.503395e-06,0.045101017,0.00948444
0.43761286,3.1292439e-06,0.000934273,0.00010338426,0.00017359853,0.0027051568,0.0022560656,0.00049099326,0.7078359,0.013060659
0.9555476,0.0,2.2947788e-06,4.708767e-06,5.066395e-07,0.006307423,0.00052785873,0.0015361309,0.18666619,0.00047716498
0.0023740828,0.0030555725,0.0007092953,0.0019533932,2.0861626e-06,0.0012869537,0.01923287,1.013279e-06,0.049303293,0.9752809
0.33070117,8.940697e-08,3.4362078e-05,1.6987324e-06,0.0,0.0054623485,0.003419757,0.91451216,0.0022546947,0.0043495297
0.0,1.603365e-05,0.9571064,0.0010278523,9.745359e-06,1.0,0.00039359927,8.34465e-07,0.040667444,0.0
0.8921504,5.9604645e-08,5.9127808e-05,0.0001282394,0.00025185943,0.0052378178,0.0025051534,5.015731e-05,0.08864075,0.0005918145
0.0038932562,0.00077834725,0.7054155,0.00023376942,0.00023785233,0.0039928854,0.011546791,8.4251165e-05,0.958421,0.0041769147
0.9003514,1.6093254e-06,0.0005618036,0.0010594428,8.165836e-05,0.0031442344,0.0066827238,0.056151032,0.0008420348,0.02630052
3.874302e-07,0.008203745,1.2099743e-05,0.99953234,0.000113248825,0.042486995,0.8926035,5.9604645e-07,0.025543392,0.00050091743
0.00054880977,3.874302e-07,0.00013762712,6.645918e-06,2.682209e-07,0.00323233,0.0015287399,0.012488008,0.00089129806,0.9503414
0.97882044,3.874302e-07,0.0014518201,2.2172928e-05,3.72231e-05,0.002458036,0.0015097857,0.0044894814,0.017124563,0.0036348104
0.9756218,9.23872e-07,0.0004233718,0.00016286969,2.82228e-05,0.013654053,0.005642414,0.00018909574,0.012297362,0.011197627
0.00014966726,8.940697e-08,0.00010243058,0.0009925067,0.13629538,0.00026533008,0.0026664734,4.082918e-05,0.99900544,5.3167343e-05
0.33223987,7.405877e-05,0.00057822466,0.00020384789,1.9669533e-05,0.003929347,0.008434832,6.559491e-05,0.12554973,0.37957048
0.9984018,0.0,1.6838312e-05,1.5705824e-05,9.834766e-07,0.011610657,0.0010446906,0.00048044324,1.2427568e-05,2.1487474e-05
0.0,0.0069674253,2.682209e-07,0.00079086423,0.00014433265,8.922815e-05,0.0012901723,0.0,6.2584877e-07,0.037385166
0.012537658,2.4735928e-06,0.00026497245,5.5760145e-05,3.1292439e-06,0.988024,0.009126604,0.007356912,0.00042545795,0.0016431808
1.1354685e-05,3.4600496e-05,0.23135471,0.99855065,0.0009506047,0.019818276,0.012993187,6.198883e-06,0.015612334,2.2500753e-05
0.68621695,2.6226044e-06,0.00011199713,3.1799078e-05,6.2584877e-06,0.0070803463,0.0034093559,0.0005041957,0.15727201,0.17306924
0.00011187792,4.053116e-06,0.0004684329,0.9999472,2.9146671e-05,0.012420207,0.014118791,1.0728836e-06,0.0008929074,1.3500452e-05
0.9915867,5.9604645e-08,7.581711e-05,8.34167e-05,2.2470951e-05,0.006493032,0.0032051504,0.008199751,0.001254648,0.0022075772
0.016903818,1.2099743e-05,0.0077860355,0.40988955,0.9906645,0.009071857,0.008728832,0.00011438131,0.006985873,0.0013690293
1.1622906e-06,0.9962133,0.00027117133,0.6890945,0.00010737777,0.008617282,0.005294293,2.026558e-06,0.9959134,0.00067076087
0.9832907,2.0861626e-07,5.120039e-05,0.00029796362,6.15716e-05,0.0070880055,0.0009863675,1.5735626e-05,0.0045812726,0.0017654002
2.682209e-07,0.00029802322,0.9985626,8.3595514e-05,0.005111605,0.0028248727,0.016767949,2.0474195e-05,0.9772522,7.122755e-06
0.8511324,1.3560057e-05,0.06771496,0.00012940168,4.87864e-05,0.02145657,0.0028205514,0.0019107163,0.021501422,0.038086057
6.0647726e-05,7.033348e-06,0.00024467707,0.0003376007,0.00011172891,0.9986432,0.010335416,0.00025638938,0.9022677,0.0001282394
0.0,0.016344309,0.003033638,0.0004504621,0.002849549,0.9999951,0.015606165,5.364418e-07,0.043425173,2.3275614e-05
0.00014430285,0.0001346767,0.00922516,0.99988425,0.00028419495,0.01473555,0.036446422,1.8775463e-06,0.00037279725,0.00012254715
3.5583973e-05,0.0,6.8336725e-05,1.0937452e-05,2.026558e-06,0.0008740127,0.0034123063,0.999887,0.0019331276,0.0017625988
0.98861647,4.7683716e-07,0.0009883344,1.3023615e-05,3.784895e-06,0.0027595162,0.00089401007,4.1395426e-05,0.0049962997,0.00073873997
0.99507123,2.9802322e-08,0.000106692314,4.529953e-06,3.1888485e-06,0.007966042,0.0013110042,0.0026697814,0.0015437305,0.00039440393
0.99381876,7.4505806e-07,0.00084775686,1.8507242e-05,9.23872e-07,0.011699945,0.0038311183,0.0004197955,0.00050905347,0.0038144588
0.4478559,2.115965e-06,6.2286854e-05,0.000103116035,3.9815903e-05,0.005157262,0.0021472871,0.00025600195,0.89991546,0.0031270683
0.7334918,3.1799078e-05,0.0011762083,0.00017896295,4.595518e-05,0.004469216,0.0036015809,4.74751e-05,0.20104694,0.030213416
0.00011861324,3.1858683e-05,1.5228987e-05,0.00010871887,2.9802322e-08,6.4074993e-06,0.00011947751,2.682209e-07,0.0010055602,0.99987787
0.010874063,0.0012110174,0.037026316,0.0051805675,1.9431114e-05,0.0018476844,0.009002209,7.149577e-05,0.36921242,0.7126279
5.3972006e-05,0.10860726,0.018608391,0.0025759041,0.0001180172,0.0033291876,0.0011390746,1.0997057e-05,0.002115637,0.9584285
0.20912471,8.672476e-06,0.00025883317,0.00022745132,4.887581e-05,0.0036749244,0.008558869,7.554889e-05,0.83940756,0.01626414
0.95423746,1.1920929e-07,6.824732e-05,2.8342009e-05,2.5331974e-06,0.0036083162,0.0038959086,0.00020936131,0.025955051,0.04634255
0.0,0.99995375,8.2582235e-05,0.00015178323,0.00047630072,0.0049307346,0.0019394159,2.592802e-06,0.102381974,3.2693148e-05
0.12917256,1.1891127e-05,0.00011667609,5.9723854e-05,1.5079975e-05,0.002662629,0.008069396,0.0003761351,0.96356535,0.005414933
0.002393961,0.0011755228,0.0007765889,0.000697732,1.603365e-05,0.029109359,0.9871327,2.643466e-05,0.041675895,0.0022349954
0.6719502,2.682209e-06,6.920099e-05,0.00011730194,2.5480986e-05,0.0048015118,0.0016599298,2.4288893e-05,0.68848026,0.0035057664
2.0563602e-06,0.9997232,0.0010310411,0.9544292,0.0001706779,0.011912197,0.007821232,1.758337e-06,0.024950504,0.00022363663
7.82907e-05,0.0014747977,0.003718108,0.97899055,0.0046549737,0.014312893,0.008775175,1.4454126e-05,0.008069783,0.077224076
0.7724197,4.082918e-06,0.0001835823,0.20165971,0.0011702478,0.006119877,0.0019262135,1.9460917e-05,0.040607065,0.012023389
0.2586525,0.00079363585,0.006295562,0.00012972951,1.9580126e-05,0.005076468,0.004462093,3.5852194e-05,0.76672053,0.04613328
0.3213215,5.3793192e-05,0.24839807,0.0003298521,0.000957042,0.007690221,0.00806573,0.00028586388,0.7988673,0.0017631352
0.0012732446,0.00017476082,0.0008404851,0.00014513731,8.8363886e-05,0.007020712,0.012486041,0.0005528927,0.99748874,0.0016117096
0.38083968,3.3646822e-05,0.0014837086,0.0010912418,0.0001681745,0.0055081844,0.0044350326,0.0003016591,0.7870741,0.028726518
0.6407723,5.9604645e-08,6.28531e-05,1.1771917e-05,1.013279e-06,0.0019012392,0.0069511235,0.15171525,0.02515605,0.0013538301
0.97957134,1.5497208e-06,0.0013849735,0.0003016293,1.4334917e-05,0.007384151,0.0013540685,0.00010514259,0.027119339,0.0041204393
0.9979306,0.0,3.710389e-05,2.3007393e-05,4.172325e-07,0.0073331594,0.0016810298,0.00064215064,0.00011304021,0.0003489256
0.0008276701,3.874302e-07,5.3316355e-05,0.99971634,6.6161156e-06,0.0069814622,0.00806883,1.513958e-05,2.849102e-05,1.0341406e-05
0.26862174,2.861023e-06,9.5278025e-05,9.2595816e-05,1.3113022e-05,0.007651806,0.0026572943,2.2828579e-05,0.93947494,0.0012732446
0.9730967,3.5762787e-07,0.00022903085,1.7911196e-05,7.599592e-06,0.004212469,0.0015639663,0.031570345,0.014219284,0.002594918
0.99879193,8.940697e-08,0.00027686357,4.4554472e-05,1.1622906e-06,0.0018950701,0.0013801754,0.0001193881,7.510185e-05,0.001680851
0.08532569,1.0669231e-05,0.00084510446,0.00014340878,0.00018700957,0.0019242167,0.0038571358,0.00011694431,0.98166686,0.0010053813
0.99393785,8.940697e-08,0.0003658831,8.434057e-05,3.758073e-05,0.009667128,0.0004259646,7.942319e-05,0.009120107,0.000249058
0.6816128,1.218915e-05,0.0003925562,0.000106573105,8.34465e-06,0.002393037,0.0016377866,2.4318695e-05,0.24350896,0.11309445
0.0008920431,0.97149974,0.0041714907,0.0012899041,1.22487545e-05,0.03099063,0.039908886,2.30968e-05,0.04416114,0.060563236
0.0008382797,2.771616e-06,1.5079975e-05,0.0016385019,1.7285347e-06,0.0874649,0.9989356,0.0017267168,0.00012090802,0.00020676851
0.0059931576,0.00096067786,0.0007415414,0.0019666553,1.3738871e-05,0.35515952,0.47205848,0.00045478344,0.056078196,0.055113137
0.006816715,5.325675e-05,0.0010995269,0.02794081,0.00042513013,0.007775247,0.012525797,0.00041630864,0.9836583,0.0037184358
0.3824957,0.00019103289,0.0012253821,5.8978796e-05,5.9604645e-07,0.003460914,0.008495241,0.0003862679,0.00030839443,0.8779155
0.0013505816,1.1920929e-07,0.0001411736,7.4118376e-05,0.03167543,0.001298517,0.0036132038,0.8392393,0.21933872,0.0006702244
5.736947e-05,0.96503687,0.003011763,0.29255256,0.00022161007,0.03018856,0.07433662,1.7285347e-06,0.092635036,0.010271281
0.0076506734,4.2915344e-06,0.00027668476,0.9974748,0.00022348762,0.018675596,0.0057495236,2.7060509e-05,0.00072297454,0.00029152632
0.99850035,0.0,7.247925e-05,1.4334917e-05,4.1127205e-06,0.0038451552,0.0016891658,0.0012462735,3.9964914e-05,0.00034874678
0.100197315,1.5199184e-05,0.00092613697,0.000118881464,1.1622906e-06,0.0018428862,0.0022636056,0.9279107,7.742643e-05,0.032310903
0.00013881922,4.2915344e-06,0.00040644407,0.0014170706,0.0004324913,0.9999685,0.0036457777,4.029274e-05,0.024225116,0.00042033195
0.00023698807,2.6732683e-05,0.011461377,0.00046747923,1.758337e-06,0.0020536184,0.004580736,0.007882148,0.00013759732,0.97517884
2.3454428e-05,0.9711253,0.007936776,0.0113790035,7.343292e-05,0.022521615,0.01586911,3.2305717e-05,0.99432194,0.0008967519
0.0,0.010586441,0.0017746389,0.9999528,5.9068203e-05,0.018332958,0.8741431,1.4901161e-07,0.0009395182,6.8843365e-06
0.098059475,7.033348e-06,0.001336962,0.0009071827,0.0011881888,0.0033667684,0.0071322024,0.000544399,0.9533577,0.0048706234
0.0,1.2993813e-05,1.847744e-06,0.0011456907,5.9604645e-08,0.0058347285,0.9997794,7.212162e-06,0.9990499,6.556511e-07
0.8825922,2.9802322e-05,0.0053491592,0.0002784431,4.1782856e-05,0.013245374,0.009335488,0.00053456426,0.027099818,0.08918834
0.060727805,2.3841858e-07,8.940697e-05,3.0010939e-05,2.4795532e-05,0.0041217804,0.002354771,0.0004785359,0.9224329,0.0021829307
0.00094521046,1.0818243e-05,0.00024944544,0.00019359589,0.00045633316,0.0017170608,0.0057697296,0.000102221966,0.99539065,0.0067837834
0.0004862845,0.056019694,0.0053586066,0.009828687,0.0008607209,0.07432103,0.8071021,0.0003246069,0.07446167,0.021145642
0.9958128,4.7683716e-07,0.00042691827,1.7017126e-05,3.0100346e-06,0.005298704,0.0021956265,0.00013640523,0.0007326007,0.0032321215
0.9986731,0.0,5.6952238e-05,2.2679567e-05,4.4703484e-06,0.003260672,0.0010812581,0.00036469102,0.00024136901,0.0007444918
1.6272068e-05,5.155802e-06,0.00087442994,0.0004976392,0.00018590689,0.00044086576,0.0069494545,0.00027483702,0.0049410462,0.9900041
0.984621,6.2584877e-07,0.0010503232,0.00015741587,1.50203705e-05,0.0102081895,0.0055500865,0.0033577383,0.00039947033,0.014766216
3.3527613e-05,0.99868536,0.011865348,0.0031062663,0.000246495,0.008894384,0.011915714,0.0011330247,0.17607948,0.0051132143
8.940697e-08,5.751848e-06,0.00020503998,0.99999547,0.050484776,0.004545659,0.008153737,0.0,0.0003952086,2.95043e-06
1.2516975e-06,5.5730343e-05,4.5090914e-05,1.3023615e-05,0.0,0.0022258759,0.9999888,4.7683716e-07,9.62615e-06,4.0233135e-06
0.98305345,0.0,8.252263e-05,3.0398369e-06,9.23872e-07,0.0011234283,0.0012099743,0.055585474,7.882714e-05,0.0008844435
0.00011071563,0.00036391616,0.99703115,0.000269562,0.00016739964,0.0022583604,0.003399551,0.0004299581,0.942492,0.00065016747
0.0,0.001041621,0.0004631877,0.0010849535,7.164478e-05,0.99999845,0.0017828643,8.493662e-06,0.024342924,0.000290066
0.9743875,4.7683716e-06,0.00026902556,1.1026859e-05,1.6093254e-06,0.0041366518,0.0018837154,0.0007224977,0.013086885,0.072345376
0.001211077,5.6922436e-06,0.0029670596,0.0001091063,4.813075e-05,0.9992587,0.056849062,0.01273343,0.0005478561,0.0031180978
0.002336204,5.364418e-07,0.00015342236,1.8060207e-05,7.390976e-06,0.0003143251,0.003640622,0.0007466078,0.9990743,0.00010308623
0.0,0.0005841255,1.9192696e-05,0.0012544394,0.0001296401,0.8338999,0.8927571,0.0,0.17461771,9.995699e-05
5.4836273e-06,0.97149086,0.0026544333,0.6958318,0.00035062432,0.0312593,0.030843198,5.632639e-06,0.40434813,0.009284437
4.8428774e-05,5.6922436e-06,0.0007378459,5.13494e-05,3.1977892e-05,0.99986136,0.010181934,1.79708e-05,0.22301552,0.0001733303
0.01928547,0.008797646,0.017630637,0.0137524605,1.2904406e-05,0.005389333,0.0056607723,1.9550323e-05,0.0075255632,0.8682468
0.65964144,3.0696392e-06,9.906292e-05,4.2438507e-05,1.0162592e-05,0.0048301816,0.002783358,4.595518e-05,0.6728888,0.01515615
0.61462593,5.9604645e-08,2.759695e-05,2.95043e-06,4.23193e-06,0.004492283,0.0018530488,0.010067105,0.57760334,0.0017255247
0.0,7.867813e-06,0.010622114,0.0061372817,0.034056276,0.99999595,0.0010732114,6.6161156e-06,0.045766354,3.7044287e-05
0.0001335442,0.017177135,0.8307096,0.0005455315,3.0308962e-05,0.0017329156,0.013246566,0.00014171004,0.9954232,0.00039574504
0.008530349,0.0013348162,0.027606457,0.0047073066,0.01684782,0.004925519,0.0054219365,6.0617924e-05,0.4603046,0.14391991
0.0010565817,0.0018467605,0.00679338,0.0025778413,0.0005059242,0.3128681,0.015716106,7.742643e-05,0.9570544,0.012733877
0.81408596,1.79708e-05,0.0007276535,6.502867e-05,1.2755394e-05,0.007158786,0.0065335333,0.079070956,0.03793183,0.009279877
0.95392585,1.66893e-06,0.001937002,0.0005841553,0.00015103817,0.004208237,0.0041187406,0.00013521314,0.0439983,0.015944898
0.00011819601,2.6226044e-05,0.0002567172,0.00016728044,1.8298626e-05,0.97992533,0.18673784,0.016620517,0.0055182576,0.0023055077
0.00018885732,9.596348e-06,0.9949496,0.0032702982,0.0020611882,0.0059931576,0.004268557,2.8699636e-05,0.9916751,3.066659e-05
2.3841858e-07,0.076529175,0.00869599,0.00012716651,0.0001886487,0.038689345,0.12544554,0.0014301538,0.75842786,0.00017127395
0.000102996826,0.0571104,0.0016629994,0.70898604,0.00027760863,0.012976885,0.64507747,5.185604e-06,0.21642807,0.12964988
0.0029498935,1.2308359e-05,0.0005632639,0.980273,0.9822856,0.0072160363,0.0033402145,1.3113022e-06,0.0015605688,0.00035133958
0.02305153,1.3649464e-05,0.9851491,0.003309667,0.0002323091,0.006851524,0.004787624,0.0068086684,0.0024110079,0.005577773
0.15657303,1.1622906e-06,3.5256147e-05,0.0001282692,4.1127205e-05,0.0015862882,0.0034023821,0.000166893,0.93938196,0.00061285496
1.013279e-06,0.8813393,0.30511796,0.99884737,0.2788068,0.021462262,0.006468028,4.5001507e-06,0.008826822,9.7543e-05
0.99727213,0.0,4.9442053e-05,2.464652e-05,7.748604e-07,0.012589842,0.0007662773,0.00013387203,0.0010236204,0.00052312016
0.0061977804,2.5570393e-05,1.5050173e-05,7.2568655e-05,5.9604645e-08,0.08438173,0.96966004,0.000112980604,0.00058060884,0.0005657971
0.00010409951,1.1920929e-07,3.5315752e-05,0.0005236864,0.038220763,0.000846684,0.004044771,6.264448e-05,0.9991729,5.1677227e-05
0.00022941828,0.0,2.3633242e-05,0.9999843,1.2427568e-05,0.0017428696,0.0061562955,7.748604e-07,7.748604e-06,1.7851591e-05
0.99634063,0.0,8.076429e-06,7.6293945e-06,5.275011e-06,0.0060658455,0.0005609989,0.003126949,1.6868114e-05,5.698204e-05
0.012478024,2.9802322e-08,7.557869e-05,0.9906497,0.00021991134,0.0061664283,0.0019090176,5.990267e-06,0.0004594624,2.503395e-05
0.029451132,5.9604645e-08,0.00014066696,0.00019523501,0.50161386,0.0017870963,0.00068604946,0.003099084,0.6665843,5.0485134e-05
0.00017523766,8.195639e-06,0.00028830767,8.019805e-05,2.3514032e-05,0.99943846,0.015647322,0.00035846233,0.09620303,0.0037994683
0.991628,2.682209e-07,0.00076046586,0.00043478608,1.3709068e-06,0.013530672,0.004019797,7.304549e-05,7.030368e-05,0.0030210316
0.00010970235,3.784895e-06,0.0099390745,0.9997605,1.3738871e-05,0.004210651,0.0042229593,2.7626753e-05,2.2172928e-05,1.0460615e-05
0.90523034,2.8014183e-06,0.00025847554,6.9737434e-06,2.682209e-07,0.0032339394,0.00062790513,0.0011172295,0.0045388043,0.043891877
0.0012655556,0.0,3.4093857e-05,5.9366226e-05,8.672476e-06,0.0021062791,0.0026906133,0.99959445,0.00093075633,0.0005954504
0.003876686,0.00029236078,0.00042161345,9.801984e-05,1.1205673e-05,0.015184462,0.82232225,0.00017818809,0.26324713,0.004809886
0.0008660555,4.172325e-06,0.0004530549,0.00028815866,0.0030430555,0.00084134936,0.006462842,2.8073788e-05,0.9994248,7.933378e-05
0.9956962,3.5762787e-07,0.00017115474,3.5852194e-05,3.2782555e-06,0.010610193,0.0058202446,0.00037032366,0.00020682812,0.0022950768
0.19259629,0.00026214123,0.0047326684,0.00051549077,2.1487474e-05,0.0063011944,0.014563203,0.000261724,0.47901136,0.16871673
0.95499,2.3841858e-07,0.00013968349,4.6491623e-06,2.682209e-07,0.050005823,0.006041974,9.7841024e-05,0.0007253289,0.008672476
0.018724203,6.2584877e-07,6.747246e-05,0.9993558,0.00016698241,0.005862057,0.006965399,1.129508e-05,0.0021608174,0.0005046725
0.6482409,7.5906515e-05,0.0237827,0.00055861473,8.368492e-05,0.0036578178,0.004974574,0.00017747283,0.28962082,0.032093525
3.2782555e-07,0.92954826,0.012034327,0.0005270839,0.0022874773,0.14263836,0.017472416,1.4603138e-06,0.22206661,0.0036625862
0.99453527,8.940697e-08,0.00017377734,4.4226646e-05,9.387732e-06,0.010536671,0.001498282,0.00058600307,0.006329119,0.0010525584
0.9479081,5.364418e-07,0.00046691298,2.1547079e-05,8.827448e-05,0.020122588,0.0018621981,0.016837358,0.0036615133,0.003453195
3.325939e-05,1.0728836e-06,4.634261e-05,0.99977887,3.8176775e-05,0.02193451,0.029629648,8.34465e-07,6.183982e-05,2.4735928e-06
0.99220455,2.9802322e-08,6.660819e-05,5.298853e-05,9.655952e-06,0.003718406,0.0003593266,5.9634447e-05,0.019750744,0.0008672774
2.9802322e-08,2.3335218e-05,0.00011780858,3.4868717e-06,9.000301e-06,0.99463403,0.32181287,0.0006660223,0.0021057725,0.00066667795
5.811453e-06,0.9984281,0.005619526,0.0048303604,3.7252903e-05,0.00661391,0.008512139,1.8715858e-05,0.97993135,0.00036540627
0.9965091,5.9604645e-08,4.9054623e-05,0.00012880564,1.04904175e-05,0.0065717995,0.0005284548,0.00013712049,0.0056061745,0.0005801022
0.9872042,2.9802322e-08,0.0004554987,0.00087732077,0.0001975596,0.006851226,0.0029330552,0.0012494028,0.0023840666,0.0027044415
0.05884093,6.2942505e-05,0.0001668036,0.0002644062,1.5795231e-06,0.008028209,0.8899408,0.00013637543,0.00026011467,0.020724565
0.08824563,9.23872e-07,0.00034993887,0.00014147162,1.4305115e-06,0.0046063066,0.005488366,0.9782642,0.00016370416,0.01088354
0.00042441487,5.814433e-05,3.3199787e-05,9.614229e-05,5.5134296e-06,0.9991663,0.02968213,5.4955482e-05,0.054357797,0.0048059523
0.0,0.9894629,0.00021764636,1.6957521e-05,3.84748e-05,0.95899886,0.0007202029,4.1127205e-06,0.87200177,0.0010837018
0.99737155,2.682209e-07,9.858608e-05,5.415082e-05,2.5331974e-06,0.009223998,0.0010302067,8.2820654e-05,0.0014899373,0.0014985204
0.0012528002,3.257394e-05,0.00041925907,0.47226205,0.0045793056,0.0017629564,0.007040739,4.9948692e-05,0.9954187,0.0007159412
0.99890125,0.0,3.5881996e-05,9.715557e-06,2.0861626e-06,0.0023744106,0.0006239116,0.00021266937,0.00035393238,0.0004874766
5.3346157e-06,0.0,2.4735928e-06,0.9999975,0.006027043,0.00055116415,0.00033801794,2.9802322e-08,0.0001258254,0.0
0.12934244,1.7732382e-05,7.930398e-05,0.00025311112,1.9073486e-06,0.97092396,0.1305826,0.00024598837,0.010815561,0.0025981665
0.99206954,2.9802322e-08,0.00021740794,4.2915344e-05,1.4603138e-06,0.001743257,0.0021027923,0.018341005,1.21593475e-05,0.0035794973
2.1606684e-05,0.013400555,0.0014805496,0.00014406443,0.00018823147,0.014736652,0.7967138,3.0606985e-05,0.9748044,0.00254789
0.94886863,3.963709e-06,0.0005711019,0.00021496415,2.1606684e-05,0.0053190887,0.0027579367,0.0006646812,0.009553492,0.06270328
0.3025934,1.886487e-05,0.0041454136,0.009816766,0.0006379485,0.000849694,0.00075665116,8.165836e-05,0.111384034,0.015417486
0.99608386,8.940697e-08,0.0006060004,1.1950731e-05,8.940697e-06,0.010555506,0.0019123554,0.0013309717,0.00053045154,0.00033465028
0.055241644,1.3709068e-06,2.4944544e-05,0.0001167953,3.9756298e-05,0.002028823,0.0036554933,8.714199e-05,0.97938526,0.004191458
0.48798114,9.655952e-06,0.00062182546,6.771088e-05,1.7106533e-05,0.0029180646,0.0066823065,0.0009969473,0.7905543,0.011675686
0.016417652,3.1411648e-05,0.0017542243,0.00011649728,3.311038e-05,0.0074371696,0.03272608,0.00095283985,0.2172271,0.70601535
0.7319966,1.4901161e-07,0.00019308925,1.5258789e-05,1.2606382e-05,0.0043037534,0.0033008754,0.0014276206,0.61198366,0.004316896
9.23872e-07,0.0,1.5199184e-06,0.9999997,0.00011470914,0.0014355779,0.0006610453,5.9604645e-08,2.682209e-06,2.9802322e-08
3.4064054e-05,8.940697e-08,0.00010976195,8.046627e-06,8.6426735e-07,0.00065493584,0.001577884,0.0043122172,0.99828064,2.476573e-05
0.00028410554,0.0023621619,0.05198559,0.9996418,0.0021214485,0.025473118,0.01637438,1.1563301e-05,0.0582574,6.330013e-05
9.596348e-06,1.1026859e-06,4.5776367e-05,0.99995303,0.00026884675,0.0043338835,0.0074116588,3.8444996e-06,8.08835e-05,1.6093254e-06
0.9928748,3.2782555e-07,0.00012424588,1.4305115e-05,8.672476e-06,0.009003222,0.0031271577,0.006003976,0.0008684993,0.0034347475
0.004131973,2.9802322e-08,0.00053951144,1.0818243e-05,0.35252333,0.0012648106,0.0017814934,0.028927565,0.44531125,8.7320805e-05
0.0,0.000101059675,6.3329935e-05,0.98643607,0.9995091,0.003440857,0.9885944,8.34465e-07,0.00018778443,4.133582e-05
0.99716985,0.0,0.00016948581,3.567338e-05,2.1755695e-06,0.017793357,0.0029001832,0.000769645,0.00016537309,0.00048229098
0.009364277,8.9377165e-05,0.00030344725,0.0031976104,0.0002502501,0.0015412867,0.013020635,4.157424e-05,0.98805153,0.005494982
0.0056254566,5.9872866e-05,0.010267258,0.02095133,0.017926782,0.0037009418,0.009501249,0.0001823008,0.9955102,0.0006391704
0.0014045537,5.0216913e-05,0.00024154782,0.0022327304,0.00059857965,0.009350419,0.01414749,0.0004479587,0.9972281,0.0013096333
5.2660704e-05,0.9981308,0.0029333532,0.0021844208,3.4481287e-05,0.008925617,0.0040607452,0.0002606511,0.7140552,0.010790676
0.02445975,1.6093254e-06,9.1701746e-05,0.9954282,0.0077118278,0.008662194,0.0023745596,2.6524067e-05,0.00040242076,0.0014758408
4.6491623e-06,0.00026366115,0.9866941,0.00042554736,0.0004709661,0.9997115,0.0073471665,0.00012427568,0.031645417,8.2314014e-05
0.34618098,3.0606985e-05,0.00044572353,5.2392483e-05,4.440546e-06,0.85390973,0.004699588,0.0049878955,0.0006093681,0.012689203
5.3226948e-05,4.258752e-05,0.008814245,0.00014859438,8.946657e-05,0.99999034,0.005960554,7.587671e-05,0.02281478,0.0015525818
0.6972949,3.5762787e-07,0.00010037422,1.4215708e-05,4.5895576e-06,0.01929149,0.011557192,0.4633457,0.0024130046,0.010753363
0.00016504526,8.940697e-08,8.195639e-06,0.00057423115,3.8981438e-05,0.008898318,0.0033128858,0.0005977452,0.99978936,1.0550022e-05
0.008346289,2.9802322e-08,2.0623207e-05,5.8621168e-05,8.4519386e-05,0.0008074641,0.0007188618,0.00012350082,0.9968908,0.0004645586
0.01830706,8.34465e-07,0.0010376573,0.00012049079,0.0008350313,0.00096184015,0.002790004,0.0004800856,0.9806256,0.0009994805
0.6223075,7.927418e-06,0.00015369058,4.2915344e-05,2.9206276e-06,0.0069443583,0.0019434988,0.0022286177,0.7729467,0.011347979
0.0057397187,6.109476e-06,4.2289495e-05,0.00026768446,3.5762787e-05,0.000821352,0.011705935,6.839633e-05,0.9967421,0.0019781291
0.0013414025,0.6220077,0.012891799,0.00046887994,1.7493963e-05,0.027149767,0.10603061,0.00026074052,0.080914736,0.064796895
0.00044855475,0.00075763464,0.28263146,0.99866617,0.01116848,0.016049504,0.006409973,2.9206276e-05,0.106963485,0.00020429492
0.9927319,2.9802322e-08,3.3080578e-05,5.5730343e-06,8.34465e-07,0.006833911,0.0014720857,0.005376607,0.0035597384,0.00021913648
0.0008569658,3.5762787e-07,2.2351742e-05,3.1352043e-05,2.5570393e-05,0.002946049,0.0067606866,0.0016914308,0.99829876,0.00039955974
0.31422827,2.9802322e-08,7.891655e-05,7.05719e-05,0.00027132034,0.0019491613,0.003597945,0.0023058057,0.5991884,0.00021311641
2.9802322e-07,0.032336324,0.028468877,0.0006496012,1.4483929e-05,0.029133618,0.8957611,1.6987324e-05,0.952806,0.0006301105
0.015124738,0.00037157536,0.09405038,0.00015589595,1.2755394e-05,0.015157878,0.94658065,8.755922e-05,0.0035957992,0.007409692
0.07995516,3.0010939e-05,0.00075152516,0.00038301945,1.2010336e-05,0.011824906,0.010732919,7.7188015e-06,0.01431331,0.7985263
0.9965952,0.0,2.208352e-05,6.3180923e-06,7.4505806e-07,0.0047852397,0.0014023483,0.00032055378,0.00042447448,0.0015724003
0.96338016,1.7881393e-07,0.0003835261,1.3619661e-05,6.2584877e-06,0.011626244,0.0024225116,0.012383699,0.011304259,0.0055894554
0.9837166,2.9802322e-08,0.000115692616,3.4570694e-06,1.1920929e-07,0.0031339526,0.0011398792,0.037807703,0.0020366907,0.0023844838
4.2051077e-05,0.92087775,0.10013297,2.4437904e-05,0.00025570393,0.0007098019,0.003573209,0.0006712377,0.026046664,0.00953719
0.045009077,0.00037011504,0.3027903,0.000410825,0.0011406541,0.0060997605,0.005847305,0.00010383129,0.9641613,0.0055034757
0.0007043183,0.10178301,0.034888178,0.0145073235,0.00015732646,0.024083406,0.002245903,1.0758638e-05,0.073278695,0.6414598
0.96304536,0.0,1.0818243e-05,1.4364719e-05,0.00041741133,0.0017638206,0.0009978116,0.00014913082,0.012160063,3.618002e-05
0.96072996,7.748604e-07,0.00013819337,3.5375357e-05,1.1205673e-05,0.0040363967,0.0017558336,0.00017848611,0.02646786,0.022166848
0.0,0.0010517538,0.9492898,0.9998345,0.46629357,0.036337882,0.008302361,1.9967556e-06,0.020145953,4.172325e-07
1.4901161e-07,0.9998059,0.001388073,9.801984e-05,0.00017231703,0.01187548,0.00022768974,0.0003914833,0.6064774,0.00086581707
0.014978051,2.1189451e-05,0.00017753243,0.0002194941,2.7805567e-05,0.00059095025,0.005502939,3.85046e-05,0.9917921,0.0032164156
0.9863939,8.34465e-07,0.00027492642,2.0205975e-05,4.7683716e-07,0.0081743,0.0015595555,0.00029218197,0.00233531,0.014456779
0.0006425679,6.4373016e-06,0.0005450845,0.070278585,0.003482014,0.0014034212,0.007851183,0.000113755465,0.99701345,0.00092977285
0.0011194944,2.9802322e-08,4.5120716e-05,0.0006830096,0.2718259,0.00102216,0.0070515275,0.016903728,0.9929179,1.0967255e-05
0.9984692,0.0,2.1159649e-05,3.5256147e-05,9.834766e-07,0.0015532672,0.0007723272,0.0002642274,0.0012786388,0.0004799366
2.9802322e-05,0.00058960915,0.0024238229,0.0020326376,0.00025886297,0.9913763,0.03549269,2.169609e-05,0.702034,0.005016893
0.0,0.9978489,0.002458483,0.00336352,0.0027056932,0.9995475,0.000118136406,0.0,0.5076936,1.963973e-05
0.073361605,5.1885843e-05,0.0030162632,0.9023999,0.00026991963,0.018050224,0.007695526,8.139014e-05,0.0022902489,0.018170923
0.98853385,0.0,0.00020948052,3.5196543e-05,2.5629997e-06,0.0033768117,0.0040486753,0.00202173,0.0029781163,0.000297606
0.4226067,2.4735928e-06,0.0017279387,1.8209219e-05,1.4901161e-06,0.0023384094,0.011442184,0.039165854,0.0010526776,0.2928671
0.059939593,0.0005430281,0.77495325,0.0001552403,5.5372715e-05,0.0048564672,0.0017679334,7.2449446e-05,0.555282,0.001318723
0.607065,5.364418e-07,0.00021922588,1.2934208e-05,3.0100346e-06,0.0044426024,0.0032579005,0.377485,0.0007557273,0.06991449
0.98506165,5.9604645e-08,6.586313e-05,3.46601e-05,1.7881393e-06,0.008580506,0.0046610534,0.008824557,0.0011389256,0.002825439
1.6391277e-06,0.2395021,0.009931654,0.9930614,0.00038734078,0.031745583,0.65988564,1.013279e-06,0.7353775,0.0015350878
0.99538887,2.9802322e-07,0.00075787306,0.00020092726,5.9604645e-05,0.008595407,0.0015287995,0.00034460425,0.0007915795,0.002079606
0.054336667,1.4692545e-05,0.007669419,7.647276e-05,3.066659e-05,0.002765596,0.0035800636,0.0016967058,0.9338751,0.03654909
0.0002566576,0.0018580854,3.117323e-05,5.0216913e-05,1.1056662e-05,0.021906108,0.8978483,4.1633844e-05,0.18116322,0.019839704
6.7055225e-06,0.0,0.00018975139,0.9998194,7.82907e-05,0.0052324533,0.0054815114,0.00011104345,5.3286552e-05,0.00016102195
0.9991361,0.0,0.0003683269,3.4093857e-05,1.0192394e-05,0.0030189157,0.00022727251,8.136034e-06,0.00015452504,7.688999e-05
0.9980081,0.0,0.00021931529,3.6031008e-05,8.34465e-07,0.007751614,0.002544582,0.00032272935,0.00018930435,0.001241982
0.00058093667,0.00020071864,0.0023402572,0.0029922128,5.8323145e-05,0.99712425,0.053229153,9.49502e-05,0.009318948,0.039421856
1.2665987e-05,0.0,1.5079975e-05,1.1205673e-05,5.5998564e-05,0.0011242926,0.0054195523,0.13786483,0.9987525,4.2438507e-05
5.90086e-06,8.490682e-05,0.00011366606,0.0005931258,2.1755695e-05,0.002231419,0.9567051,0.00027650595,0.99741447,0.0002526939
0.0084632635,5.066395e-07,3.9100647e-05,1.3947487e-05,9.030104e-06,0.0029052794,0.009922326,0.010499448,0.98574495,0.0021451414
0.00011327863,0.01759854,0.9547288,0.0023284853,0.0020076334,0.015292704,0.10766503,9.1940165e-05,0.451639,0.020639718
0.9643209,2.9802322e-07,0.00016281009,0.00023174286,2.4229288e-05,0.015073627,0.0016943514,0.00085544586,0.022827953,0.0049915016
0.00011861324,3.1858683e-05,1.5228987e-05,0.00010871887,2.9802322e-08,6.4074993e-06,0.00011947751,2.682209e-07,0.0010055602,0.99987787
0.009009838,0.0,0.00018706918,0.00017774105,0.99939346,0.00027152896,0.0008817315,7.259846e-05,0.0007736087,3.7252903e-06
0.97878623,5.751848e-06,0.0005289912,0.0001630485,7.6293945e-06,0.004054457,0.000618279,2.9176474e-05,0.01631707,0.015125066
0.14805868,1.3113022e-05,0.002582699,0.0001872778,8.460879e-05,0.021178424,0.018171996,0.00086164474,0.020929754,0.118845016
0.99783784,5.9604645e-08,0.0001552701,1.1175871e-05,1.6629696e-05,0.0031067133,0.00054880977,0.00014689565,0.0060400367,0.00021970272
0.00023394823,7.7188015e-06,4.2140484e-05,3.1143427e-05,7.867813e-06,0.00012910366,0.003109157,1.0073185e-05,5.185604e-06,0.9997905
0.00047710538,0.0,7.390976e-06,1.1831522e-05,9.1433525e-05,0.0018759966,0.003996551,0.023862273,0.9853077,0.00068488717
0.17806318,4.708767e-06,8.606911e-05,0.04332912,0.0003029108,0.009904057,0.002726823,4.735589e-05,0.6503293,0.018189788
0.9911193,1.1026859e-06,0.00055134296,9.942055e-05,7.56979e-06,0.007024795,0.0025812387,2.7477741e-05,0.0025613606,0.0029132664
0.0,3.2782555e-07,2.0861626e-07,4.4703484e-07,1.4901161e-07,0.0017937124,0.99999666,4.029274e-05,0.00028550625,3.632903e-05
0.0,4.1097403e-05,0.00040131807,0.00081014633,3.8683414e-05,0.9999997,0.0033523738,6.9737434e-06,0.054433137,0.00019749999
0.015033543,1.2069941e-05,0.001992315,0.99799323,3.8564205e-05,0.0013539195,0.005078912,2.3305416e-05,1.1622906e-05,0.0010793805
0.99443126,0.0,3.9875507e-05,7.113814e-05,0.00017622113,0.008697957,0.0006093681,0.002897203,0.00035086274,0.00039303303
1.9043684e-05,1.5795231e-06,0.0002117157,0.99991846,1.5825033e-05,0.0039145947,0.007278532,2.682209e-07,0.00067555904,1.4066696e-05
2.2053719e-06,0.9905249,0.009029299,0.99631774,0.0005699694,0.010617316,0.017937124,3.2484531e-06,0.1416043,0.00056776404
0.9851663,1.1920929e-07,9.992719e-05,1.2695789e-05,2.9802322e-07,0.0121308565,0.0022307038,0.0050326884,0.00012391806,0.0034572184
1.7344952e-05,3.6358833e-06,0.018154562,0.008882403,0.7705035,0.99118805,0.006166965,0.000108242035,6.604195e-05,0.00012335181
2.7865171e-05,7.0929527e-06,0.00024062395,0.99993885,3.46601e-05,0.0028909743,0.011847854,3.9041042e-06,8.1181526e-05,1.1056662e-05
0.00014829636,0.0,3.784895e-06,8.821487e-06,3.3676624e-06,0.00040966272,0.0035433471,0.014793843,0.99982464,2.7298927e-05
0.0011999607,8.940697e-08,1.4781952e-05,0.9787737,5.1259995e-06,0.00489974,0.0020874143,2.026558e-06,0.0030096471,3.0100346e-05
0.00040620565,0.022307485,0.0014505684,0.0043587685,5.9455633e-05,0.0056581795,0.017953366,9.23872e-07,0.04253474,0.9785447
1.7881393e-07,0.0,1.013279e-06,0.9999951,5.9604645e-08,0.0008635819,0.0020985901,2.0861626e-07,3.0398369e-06,0.0
1.4424324e-05,2.592802e-06,2.9802322e-07,7.405877e-05,2.0861626e-07,0.0036625564,0.9995622,0.00014489889,0.6808747,0.00031742454
0.9965625,0.0,0.00018885732,5.8710575e-06,2.1457672e-06,0.00606066,0.0009700954,0.00080928206,0.00031372905,0.0009842813
0.9987201,0.0,0.00013196468,2.3692846e-05,2.9802322e-07,0.010374427,0.0005273223,0.00026735663,1.4126301e-05,0.000101834536
0.305819,9.000301e-06,0.0028969646,0.00013443828,2.554059e-05,0.003420055,0.017415583,0.11613119,0.2265918,0.027953416
5.352497e-05,4.6014786e-05,0.00013947487,0.002183944,2.682209e-07,0.0031730235,0.999108,0.070275635,8.8602304e-05,0.0014222562
3.874302e-07,3.2782555e-07,6.7949295e-06,0.9998739,0.0038214922,0.026763588,0.008646607,8.046627e-07,0.9922122,2.2351742e-06
0.00094234943,0.0060057044,0.013019383,0.0009716153,3.4183264e-05,0.50818145,0.049125075,4.476309e-05,0.2103599,0.17403847
0.038262695,1.4066696e-05,0.00020843744,0.00014778972,1.6659498e-05,0.0018798113,0.0077249706,0.00032156706,0.8266481,0.1586172
0.000102221966,0.034923226,0.19844988,0.0015258193,8.904934e-05,0.008227795,0.70867205,2.7805567e-05,0.9182688,0.009897053
0.11663529,3.5762787e-07,0.00019106269,3.3318996e-05,2.95043e-06,0.0016823113,0.006507039,0.9835911,0.0006915033,0.0019991398
0.009442598,0.00053843856,0.011930287,0.0020171702,0.00084096193,0.003294289,0.009049684,6.145239e-05,0.9799384,0.030850947
0.9692267,2.503395e-06,0.00693503,0.0001757741,5.6117773e-05,0.01495257,0.006295085,0.01997444,0.0008870363,0.0047786534
0.969965,3.2782555e-07,0.00010210276,0.00011277199,7.4237585e-05,0.007058382,0.0012667179,0.00032445788,0.13319895,0.002393961
0.02385968,4.0382147e-05,0.99378014,0.0018300712,8.97944e-05,0.0045775175,0.00513193,0.0005275905,0.17266497,0.0017707944
0.9962591,2.9802322e-08,0.00014910102,1.6152859e-05,2.95043e-06,0.0054511726,0.0017796457,0.0025378466,0.00071674585,0.000608623
0.00010803342,3.5762787e-07,6.2286854e-05,8.6545944e-05,1.0639429e-05,0.0017802417,0.014410794,0.01253441,0.99908483,8.097291e-05
0.5913414,5.9604645e-08,1.0669231e-05,1.9878149e-05,4.827976e-06,0.005607635,0.0022644997,0.003540486,0.6110523,0.0049693584
0.98834634,2.9802322e-08,0.000110566616,1.9818544e-05,1.1175871e-05,0.0050034523,0.0017665625,0.00055778027,0.006948173,0.0068962574
0.0791637,8.5532665e-06,4.1782856e-05,2.8312206e-05,1.3291836e-05,0.0017637908,0.006667584,3.2663345e-05,0.8356428,0.17929825
0.15430468,7.2717667e-06,0.00047120452,0.000117748976,7.0899725e-05,0.0028638542,0.0026997626,1.591444e-05,0.9259112,0.012476563
0.000751853,3.555417e-05,0.99297464,0.00059357285,0.00027137995,0.004933715,0.031787843,0.00046554208,0.021662384,0.016850442
0.00041389465,0.0,7.212162e-06,1.4066696e-05,0.051112115,0.00046363473,0.0011038184,0.0027246475,0.994745,3.2782555e-07
0.0018741488,3.3974648e-06,0.002975136,0.00030109286,0.89510167,0.010774881,0.017354995,0.00080287457,0.09143612,0.003123343
0.23420858,1.3709068e-06,1.9162893e-05,4.5120716e-05,8.285046e-06,0.0025528967,0.0047568083,4.1097403e-05,0.8245983,0.01182276
0.0077370703,0.0,2.8520823e-05,4.1365623e-05,5.7071447e-05,0.0002450645,0.0016393065,6.80089e-05,0.99810076,0.00011694431
0.9851405,1.1026859e-06,0.0001680255,3.8951635e-05,1.1920929e-06,0.023079067,0.005030453,0.00013485551,0.005095601,0.0021809042
0.007991761,2.6792288e-05,0.00015231967,0.00015723705,0.00013509393,0.0052279234,0.018467784,0.0005001426,0.9801729,0.008912474
2.9802322e-07,0.0020626783,0.18596601,0.0003055036,0.0028159022,0.99988514,0.002820164,1.3589859e-05,0.9170113,7.56979e-05
0.3577474,0.0,1.6897917e-05,2.8520823e-05,1.7881393e-06,0.0072334707,0.0013149977,0.00075247884,0.7425282,0.000595212
0.93617165,5.9604645e-08,2.169609e-05,9.447336e-06,1.7285347e-06,0.006829858,0.0014899075,0.00045609474,0.11947158,0.0016063452
0.9848024,1.7881393e-07,0.0003054738,0.00040999055,0.00028306246,0.015242159,0.0019765794,6.136298e-05,0.0048483014,0.00075134635
0.004052311,2.0802021e-05,0.0005886853,0.0004969835,0.0003158152,0.0031161904,0.008518398,0.0003567338,0.99682415,0.0024450421
0.0010530055,4.172325e-07,0.99981236,0.0003838539,1.1712313e-05,0.007496536,0.001427114,0.0077652037,0.002709806,9.867549e-05
0.9921539,1.1920929e-07,0.0002631545,9.9271536e-05,2.6166439e-05,0.008045584,0.002501607,0.00020998716,0.0029399097,0.00401783
0.9678884,6.854534e-07,0.00037130713,0.000118494034,0.00039458275,0.014016718,0.0033044815,0.0014031827,0.004205495,0.012033194
0.98833436,0.0,4.3809414e-06,9.4771385e-06,9.000301e-06,0.0005720854,0.00015243888,0.056768894,1.4424324e-05,5.00679e-05
1.7881393e-07,0.015371263,0.81332314,0.02211693,0.0022931397,0.99629486,0.027629852,1.9580126e-05,0.9921322,2.5182962e-05
0.97987884,8.6426735e-07,0.00057807565,4.2051077e-05,1.0311604e-05,0.005372256,0.0030200481,0.005710393,0.0062989295,0.0026222467
2.6226044e-06,0.99943316,0.00026151538,0.014307857,3.9368868e-05,0.036797374,0.0032536983,1.591444e-05,0.989534,0.0003694892
0.0,0.9998765,3.2037497e-05,2.026558e-06,0.0010439157,0.0133520365,0.00011008978,2.8938055e-05,0.13961634,0.00025498867
0.91099024,1.7881393e-06,0.00018644333,0.0001308322,5.9485435e-05,0.006754756,0.0043412745,6.762147e-05,0.11554995,0.002990365
0.00015100837,0.00017854571,0.004098147,0.99945056,0.495211,0.009208292,0.0025261939,6.2584877e-06,0.0005634427,0.0003796816
0.96627617,4.172325e-07,0.005843669,2.270937e-05,4.1484833e-05,0.0043922067,0.0019300878,0.001131475,0.09212038,0.00032174587
0.033599347,3.7252903e-06,0.0006005168,3.1918287e-05,3.1888485e-06,0.0026254654,0.005248666,0.0001552105,0.9828341,0.00080674887
5.8591366e-05,0.027435511,0.0003350675,0.00020307302,1.7881393e-07,0.007380396,0.99160945,0.000113517046,0.011656731,0.0015368164
1.3589859e-05,1.2099743e-05,0.00015053153,0.9999456,2.1725893e-05,0.0091691315,0.01078403,3.1292439e-06,0.00045073032,3.1292439e-06
0.0,6.854534e-07,5.9604645e-08,2.9802322e-07,9.23872e-07,0.0049384236,0.99989176,7.626414e-05,0.00062695146,0.00072687864
0.8623198,5.543232e-06,0.0003221333,2.8908253e-05,7.3611736e-05,0.0016421676,0.0006918609,0.00068181753,0.3416487,0.0017941296
0.74893713,1.5199184e-06,0.0071568787,0.00010487437,1.4662743e-05,0.009516269,0.0072357953,0.5691737,0.00061634183,0.0104008615
0.0,1.1563301e-05,0.00014674664,0.0040513873,0.015540153,0.99999547,0.0018008947,1.4066696e-05,0.0070873797,0.00018385053
0.00035062432,1.1920929e-07,0.00010338426,4.6491623e-05,0.00018775463,0.00029855967,0.0049741566,8.559227e-05,0.9997543,1.7642975e-05
8.0913305e-05,0.0565044,0.12066451,0.9042758,0.0001757443,0.0095434785,0.02630806,4.2915344e-06,0.96871006,0.0093539655
0.59242177,1.31726265e-05,0.00015488267,0.0005196631,1.6540289e-05,0.0054862797,0.0076156855,0.00027117133,0.3412477,0.10800457
3.388524e-05,0.31125283,0.0010486245,0.0051243603,1.2040138e-05,0.011756718,0.4239781,2.6464462e-05,0.926252,0.008665353
0.9962443,2.9802322e-07,0.0010887086,6.0230494e-05,1.1861324e-05,0.008059472,0.0024724305,0.0005812049,7.8976154e-05,0.003876716
0.97483754,2.9802322e-08,0.0001347065,0.0001013577,1.4156103e-05,0.009573817,0.002851665,0.034331948,0.00056767464,0.0038682818
9.086728e-05,2.9802322e-07,8.237362e-05,0.999918,3.311038e-05,0.012843877,0.004362762,7.688999e-06,0.00022009015,4.9471855e-06
0.9990344,0.0,5.9872866e-05,9.715557e-06,7.1525574e-07,0.006397724,0.00056785345,0.00046914816,6.982684e-05,0.00016093254
0.12447721,7.882714e-05,0.00057020783,5.1766634e-05,3.963709e-06,0.006479591,0.005761564,6.559491e-05,0.55000144,0.45579422
0.03128594,2.3841858e-07,2.6196241e-05,4.3094158e-05,7.748604e-07,0.0040054023,0.007981628,0.92673755,0.150235,0.004858166
0.004264593,1.963973e-05,0.00013670325,0.00053322315,0.00017133355,0.002108246,0.009734809,8.8214874e-05,0.9974828,0.0026277602
0.0016491413,5.066395e-07,0.00019329786,0.99921787,2.4527311e-05,0.020418733,0.012061298,0.00011667609,0.001406759,3.3915043e-05
0.0,0.98725045,0.008693278,0.0025015473,0.9855506,0.01805693,0.0017097294,4.172325e-05,0.050228238,0.0002734959
0.00013244152,0.0004786551,0.0004454553,3.2007694e-05,2.3841858e-06,0.0016412139,0.003901273,7.987022e-06,0.0015114546,0.9963143
0.0017329752,8.85725e-05,0.0013927817,0.9985593,0.0008458495,0.019152224,0.009272575,1.0818243e-05,0.00036761165,0.0003091097
0.0012361109,3.2812357e-05,0.0004310608,0.99948007,0.00039175153,0.012501359,0.01474753,1.0192394e-05,0.010160327,0.00012338161
0.059190392,1.013279e-06,0.00012528896,0.00017407537,0.00022631884,0.0015784502,0.0018526316,0.000261873,0.991721,0.0005595088
0.71083355,1.9937754e-05,0.00079631805,1.0967255e-05,1.3381243e-05,0.012124211,0.015139222,0.00036382675,0.14249933,0.079583526
0.9955826,0.0,4.118681e-05,7.897615e-06,1.3113022e-06,0.0036759675,0.00080394745,0.003936112,0.00017428398,0.0010763407
2.1874905e-05,9.685755e-05,7.003546e-05,0.003971815,0.00012546778,0.04432124,0.8947462,0.010731101,0.0009467602,0.011783749
0.09607151,1.9729137e-05,9.000301e-05,0.00095167756,6.9350004e-05,0.0027695298,0.00722301,2.5898218e-05,0.8262403,0.05133158
0.99478936,4.172325e-07,0.0001810193,6.54459e-05,2.95043e-06,0.003004849,0.0018767715,7.918477e-05,0.00055778027,0.016180515
0.99547195,0.0,6.452203e-05,2.6613474e-05,1.0281801e-05,0.0025577247,0.0021650791,0.00029596686,0.0006672442,0.00020885468
0.00031271577,1.013279e-06,0.00056937337,3.954768e-05,1.2099743e-05,0.0022862554,0.029942632,0.8816672,0.0058537424,0.21540546
0.9831108,4.7683716e-07,0.004080087,3.85046e-05,1.7404556e-05,0.017438084,0.0016138554,0.0015337765,0.010162085,0.0039092004
0.03798729,1.4901161e-07,4.7832727e-05,1.9937754e-05,8.34465e-07,0.00300017,0.0045914054,0.98849934,0.0005233586,0.00041002035
0.00014549494,0.00041648746,0.96443546,0.0002168715,9.5039606e-05,0.0024238527,0.013210714,7.5519085e-05,0.99852943,0.000109404325
0.00068461895,3.5762787e-07,0.9995824,0.00033655763,8.3476305e-05,0.006677687,0.0022029579,0.009707421,0.12608168,0.00023725629
0.9905467,1.1920929e-06,0.04574418,4.4226646e-05,5.3048134e-06,0.002110839,0.0017365217,0.00011622906,6.005168e-05,0.0021784306
0.0,0.0,1.4007092e-06,0.0,0.0,1.0,3.606081e-06,0.0,1.0162592e-05,1.4901161e-07
0.2628981,8.046627e-07,0.005916536,9.119511e-06,1.4901161e-07,0.00087094307,0.0029194653,0.00078347325,6.8724155e-05,0.87655413
0.96642864,9.23872e-07,0.00043812394,0.00012102723,3.284216e-05,0.014889896,0.005046487,0.025300443,0.0029788017,0.007856548
0.019896507,0.0011052787,0.49409685,0.0041233003,0.00018763542,0.0040915906,0.005524218,2.8461218e-05,0.24934894,0.1616494
4.529953e-06,2.604723e-05,0.9655769,0.85252917,0.006833911,0.0075910687,0.16572097,0.003944695,0.00060245395,0.00014552474
0.0,0.5924936,3.9845705e-05,0.99773324,0.004068285,0.13654247,0.7665972,5.066395e-07,0.022420913,1.6152859e-05
1.3411045e-06,4.979968e-05,0.1429745,0.99982536,0.12961584,0.009122908,0.0017271042,3.2782555e-07,0.24030766,4.5597553e-06
1.0311604e-05,1.1146069e-05,0.00022664666,7.557869e-05,0.0,0.0016687512,0.0005789697,0.0010207891,0.0015512109,0.98189217
0.00022897124,8.940697e-08,0.87845016,0.99717903,5.275011e-06,0.00026527047,0.00029954314,5.6624413e-06,0.00036206841,0.00026351213
0.9965439,5.9604645e-08,0.00080522895,2.026558e-05,1.2069941e-05,0.005035639,0.0027828515,0.0007369518,0.0008161068,0.0006416738
0.016126245,5.9604645e-08,0.000654459,3.0368567e-05,0.9697876,0.0025792122,0.0007329285,0.00033074617,0.11753458,1.4364719e-05
1.1622906e-06,0.24824697,0.0013843775,0.0006464422,0.0002374649,0.07358149,0.08576596,6.2584877e-07,0.9992574,0.00013330579
0.0062029064,2.2858381e-05,8.1539154e-05,0.0011667013,0.00013267994,0.008376718,0.009281009,9.524822e-05,0.98956144,0.0051599443
0.93875897,2.9802322e-07,0.0013070703,0.00016468763,1.2278557e-05,0.004460633,0.0032508671,0.11487037,0.00018268824,0.010044068
0.98520565,1.1920929e-06,0.0001693666,8.043647e-05,9.685755e-06,0.00869149,0.0034237504,4.3153763e-05,0.003484249,0.0056557357
1.3113022e-06,0.008291125,0.0069856346,0.99921495,0.00081688166,0.004975617,0.014655441,1.1920929e-07,0.97681475,0.0006727874
0.3906728,4.5210123e-05,0.0022128224,5.1945448e-05,3.9041042e-06,0.010385215,0.008420348,0.00055760145,0.55595034,0.102523714
0.00046652555,3.0100346e-06,0.9997957,0.49110308,5.9604645e-05,0.011265367,0.0024423301,0.00050494075,0.0012979805,0.00013661385
0.0004915595,0.00013136864,0.99932706,0.0020310879,0.0004863143,0.0060414374,0.0039742887,0.00038048625,0.24112132,0.0020931065
0.93179846,1.9073486e-06,0.0017253458,0.00017464161,0.00012263656,0.0051465333,0.00379771,0.0007131994,0.07744071,0.009108603
0.024342239,5.9604645e-08,0.00028014183,5.2392483e-05,4.759431e-05,0.00089627504,0.0037861466,0.00061646104,0.99665445,0.00012770295
0.15741697,0.00056025386,0.70880365,5.6952238e-05,2.8371811e-05,0.028248698,0.1194019,0.0006082654,0.007052779,0.0064846873
9.536743e-07,0.99960726,0.002638936,0.0101031065,0.0010023117,0.01864332,0.0069468617,1.603365e-05,0.73858815,0.00034549832
0.9927852,2.9802322e-08,0.0076524317,6.1541796e-05,2.0235777e-05,0.0043960214,0.0009197295,0.00014010072,0.0007917285,0.00043708086
0.9907558,2.9802322e-07,0.00042968988,1.0102987e-05,1.66893e-06,0.018985748,0.0134675205,0.00012654066,0.00066512823,0.001832813
0.04247126,7.033348e-06,0.42589366,0.00038015842,0.0008482337,0.0037868917,0.0060323775,0.003267616,0.93804115,0.0006918609
1.5795231e-06,8.195639e-06,7.3611736e-05,0.99992216,0.0001425147,0.009322196,0.006904125,2.3841858e-07,0.7474307,8.940697e-07
0.19545716,5.9604645e-08,3.1590462e-06,7.301569e-05,1.731515e-05,0.0049338043,0.0015229881,0.0002156496,0.9287216,0.0006786585
0.64771736,2.0861626e-07,4.6610832e-05,8.2433224e-05,2.1487474e-05,0.001093626,0.0017260611,0.0003170371,0.673573,0.0015607774
9.23872e-07,0.99695885,0.0011808872,0.01950863,0.0002667606,0.055127203,0.0024050176,1.4901161e-07,0.7978625,0.044675887
1.680851e-05,8.946657e-05,0.00038954616,0.99997914,0.00034701824,0.0068728626,0.01338771,7.1525574e-07,0.0016487539,2.0116568e-05
0.9959966,2.9802322e-08,9.3102455e-05,6.0796738e-06,7.4505806e-07,0.0017632544,0.0009127259,0.0029205084,5.1528215e-05,0.0020918548
0.9968004,5.9604645e-08,0.00014409423,1.7255545e-05,1.3411045e-06,0.009809434,0.0008507073,4.6998262e-05,0.00052922964,0.0002835393
0.98921204,2.9802322e-08,4.544854e-05,1.8894672e-05,6.854534e-07,0.0018416941,0.0013620853,0.00020468235,7.7188015e-06,0.000936687
0.020667583,3.0398369e-06,0.0005517602,4.2647123e-05,2.2649765e-06,0.015713573,0.054173082,0.0008356273,0.015652776,0.8839512
8.827448e-05,0.9867065,0.014065474,0.010224789,7.164478e-05,0.016864002,0.016971797,1.14142895e-05,0.99101925,0.0016928613
0.0,0.002143532,0.016670167,5.2839518e-05,0.00028592348,0.9999343,0.08089617,2.3841858e-05,0.6940419,2.3126602e-05
0.99024177,5.9604645e-08,4.8726797e-05,3.6984682e-05,6.7949295e-06,0.015445024,0.0031391084,0.00012814999,0.0060604513,0.0014636815
3.7282705e-05,0.04649341,0.77709013,0.0089998245,0.0034892857,0.026296169,0.39600685,0.00014016032,0.03503558,0.008194178
0.002352357,0.0003401041,0.008027613,6.0081482e-05,6.854534e-07,0.003600508,0.016032219,0.00028851628,0.0012291372,0.9795829
0.0001309812,2.9802322e-08,0.00038173795,0.0012509823,0.9644135,0.00033953786,0.00094494224,1.7613173e-05,0.9974602,1.50203705e-05
0.00034415722,7.5101852e-06,0.0010605752,3.400445e-05,1.3321638e-05,0.9999832,0.016628921,0.00018075109,0.0049880445,0.00012907386
0.92966044,3.4570694e-06,0.0008288622,0.00031206012,1.8656254e-05,0.002847731,0.0012954175,1.7881393e-05,0.09609881,0.0060316324
0.46188414,4.9978495e-05,0.00447613,4.133582e-05,9.149313e-06,0.0048060715,0.00911206,0.00017529726,0.00034230947,0.55894667
4.172325e-07,0.9997402,0.00042185187,0.0005162358,0.00077074766,0.011027366,0.0004825592,3.874302e-05,0.15053675,0.0018178225
0.9970751,2.9802322e-08,3.5464764e-05,2.4676323e-05,2.0861626e-06,0.006824076,0.0048777163,0.00052794814,0.00011578202,0.0011250079
0.055114806,5.0246716e-05,0.027219683,0.00079649687,0.00082051754,0.0025394857,0.0055804253,3.3080578e-05,0.955055,0.0016504824
9.998679e-05,0.0043766797,0.00022876263,0.00033789873,3.9041042e-06,0.020100653,0.90306413,0.00010538101,0.6070262,0.026761442
0.9981741,0.0,7.224083e-05,9.953976e-06,1.3113022e-06,0.003184259,0.0008594394,0.00047835708,0.00036495924,0.00058829784
0.00021526217,7.2062016e-05,0.013580203,0.00023800135,5.1617622e-05,0.9999349,0.0039425194,0.00013321638,0.11594266,0.0006354749
0.7429245,5.990267e-06,0.60805917,0.00016006827,7.599592e-06,0.001059711,0.0010108352,0.018286824,0.00077709556,0.012586832
0.00018948317,1.0728836e-06,5.468726e-05,0.9999651,0.0002914667,0.00943923,0.014188021,2.9802322e-07,0.0034185648,8.5532665e-06
0.06499365,2.861023e-06,0.23130846,0.00031125546,7.2062016e-05,0.0026247501,0.009651303,0.006999433,0.01854515,0.64638495
0.78834015,8.34465e-07,0.0001706183,1.04010105e-05,1.9669533e-06,0.005779922,0.0030469596,0.0009403825,0.48437396,0.008665681
0.19402543,6.365776e-05,0.003314048,0.00030198693,6.824732e-06,0.021563381,0.51637304,9.164214e-05,0.00048017502,0.008113354
0.0013783872,0.0,2.413988e-06,2.026558e-05,6.735325e-06,0.0007249713,0.001970172,0.00090941787,0.9981931,0.00024041533
0.00037881732,0.9980952,0.0016121864,0.002470225,3.7044287e-05,0.00891313,0.0038142502,1.2308359e-05,0.11236754,0.014137983
0.99568903,1.7881393e-07,6.0617924e-05,5.441904e-05,3.9041042e-06,0.010185212,0.0053651035,0.00029033422,0.0004862547,0.0011535287
0.0832589,0.0029858649,0.013733983,0.000103890896,1.0818243e-05,0.004742861,0.004768491,0.00014606118,0.73484015,0.3649249
0.99682164,2.9802322e-08,1.2755394e-05,2.8014183e-06,3.5762787e-07,0.014171153,0.0018660128,0.00091534853,0.00031894445,0.001544714
0.23792377,3.5762787e-07,0.97602993,4.643202e-05,3.427267e-06,0.004379332,0.0008485913,0.0009023547,0.00010433793,9.614229e-05
0.8781167,1.1622906e-06,0.00017401576,0.00025120378,0.026305795,0.0047931373,0.0028641224,0.00033462048,0.000623554,0.0042741597
0.99491084,0.0,0.00012397766,3.1232834e-05,5.2452087e-06,0.0056339502,0.003136307,0.008228779,0.00012877584,0.0017111003
0.013760179,2.0503998e-05,0.0009688437,0.001153022,0.0019316673,0.04782477,0.80981505,0.00062945485,0.0009531379,0.008290976
0.91722715,6.0796738e-06,0.3508913,2.321601e-05,3.0457973e-05,0.0064611137,0.0022093058,0.0020819604,0.0027210712,0.0062496364
0.9377351,0.0,5.0365925e-06,1.7881393e-05,0.0,0.0011330545,0.0005001426,0.17334709,1.7881393e-05,0.00011226535
8.34465e-07,2.115965e-06,6.252527e-05,0.00014859438,3.361702e-05,0.9982808,0.015213877,2.9593706e-05,0.99120605,4.1663647e-05
2.682209e-07,0.0,1.9550323e-05,0.9999981,0.0013516545,0.00040507317,0.0016090274,4.7683716e-07,4.798174e-06,2.9802322e-08
0.035510063,9.983778e-06,0.00021517277,0.00010231137,1.7493963e-05,0.0021705627,0.0049981475,6.4611435e-05,0.97586715,0.023928791
0.99293506,8.940697e-08,0.00016137958,7.110834e-05,8.404255e-06,0.010618001,0.0008491874,0.00023922324,0.011775792,0.003012985
0.0010633469,5.8352947e-05,0.9019166,0.0027772784,0.2471079,0.009745985,0.0063428283,0.00016647577,0.00070360303,0.0016786158
0.0,0.002366215,0.96924627,0.9997794,0.0012489259,0.0687857,0.90117604,8.225441e-06,0.0001360774,1.013279e-06
0.98902667,2.9802322e-07,0.00011789799,2.3812056e-05,6.0796738e-06,0.0033904016,0.0014616251,5.9962273e-05,0.0043969452,0.014943302
0.001183033,0.00013917685,0.20188454,1.12354755e-05,2.2470951e-05,0.00065621734,0.008976489,9.971857e-05,0.9980047,0.00039228797
9.834766e-07,4.044175e-05,4.3809414e-06,1.2218952e-06,4.172325e-07,0.044746667,0.99917,0.00016742945,0.00074642897,0.0017000437
0.0052884817,0.0021336377,0.89101803,0.008045405,0.00021901727,0.00568676,0.009495646,2.8252602e-05,0.1897178,0.07146922
0.07957336,0.0,6.7949295e-06,2.655387e-05,5.6535006e-05,0.0010941327,0.0021071136,0.0007047057,0.978818,1.6450882e-05
1.1920929e-07,0.96786743,0.017753452,0.0072135925,0.0019924045,0.9118662,0.061082482,4.7385693e-06,0.14760199,0.00031119585
0.00020354986,0.000277251,0.020266771,0.9994587,0.021149129,0.0061778724,0.0038411021,4.4435263e-05,6.6548586e-05,0.0016355813
0.0,0.9988314,3.2812357e-05,0.9994309,0.018606424,0.010710597,0.0028776526,1.7881393e-07,0.046363175,2.2649765e-06
0.7878212,4.5597553e-06,0.0005261302,0.00012728572,2.0563602e-05,0.020122737,0.0057846904,0.0043152273,0.44906616,0.0024068058
0.00034883618,1.3232231e-05,0.0004749894,3.311038e-05,2.682209e-05,0.99974984,0.006032586,0.05169487,0.013865888,0.0019061863
0.9881492,1.937151e-06,0.00044173002,3.7133694e-05,1.257658e-05,0.010216594,0.0032187402,0.0039310157,0.0033492148,0.008330762
0.0,0.008111417,0.98027647,0.0043893456,0.006650567,0.99831903,0.016251594,8.2194805e-05,0.024362177,7.292628e-05
0.038418204,1.1920929e-07,1.4007092e-06,0.00021490455,3.606081e-06,0.0078044236,0.0034808815,0.0041135848,0.96449065,0.00054615736
4.8577785e-06,8.6426735e-07,0.0036741495,0.99991393,0.79056585,0.00097617507,0.0035822988,1.1771917e-05,5.1677227e-05,0.00010469556
0.0017568469,3.7282705e-05,0.0008507073,0.00018283725,0.00029361248,0.0014152825,0.007304102,1.6331673e-05,0.99823374,0.0010814667
0.9732367,8.583069e-06,0.00037166476,0.0004937649,9.4771385e-06,0.008443147,0.0047903955,0.00014010072,0.003818512,0.013697028
0.000105679035,5.4836273e-06,0.00042182207,0.9999291,0.009287447,0.004751891,0.013186425,1.1026859e-06,0.01587826,1.40070915e-05
0.9351506,9.23872e-07,0.0004350245,0.00026729703,5.0336123e-05,0.01079312,0.0026488602,0.0003427565,0.103411466,0.022957712
0.0,0.0,0.0,3.159046e-05,0.0,1.1920929e-07,1.3113022e-06,0.0,5.9604645e-08,0.99999976
0.0,1.937151e-06,5.9604645e-08,0.9999942,0.0,0.00034046173,0.9999995,0.0,2.3841858e-06,0.0
0.0,2.771616e-06,0.00016710162,5.567074e-05,0.14807469,1.0,0.0010586977,6.854534e-07,0.0003555119,3.5762787e-07
0.99257493,1.1920929e-07,0.00040361285,0.000106453896,5.5730343e-06,0.027902931,0.0009044111,0.00018879771,0.00037804246,0.0018244684
5.9604645e-08,6.854534e-07,7.748604e-07,0.00020810962,0.0,4.7683716e-07,1.9222498e-05,1.0728836e-06,1.4901161e-07,0.9999987
0.023701102,6.556511e-07,0.00010046363,0.00023111701,0.00022390485,0.0017599463,0.0075383484,0.00105232,0.99193,0.00015851855
0.0219585,1.1056662e-05,4.5090914e-05,0.00035107136,1.4543533e-05,0.0008393824,0.0020642579,3.120303e-05,0.9793558,0.008832753
0.33713287,5.6028366e-06,0.00031405687,3.5464764e-05,3.838539e-05,0.0012413561,0.0020764172,9.2327595e-05,0.8502003,0.0066080987
1.4901161e-06,1.0818243e-05,2.1159649e-05,6.1690807e-06,6.4074993e-06,0.024513543,0.9989226,0.0006546974,0.0011803806,0.00018593669
0.34295425,6.854534e-07,7.998943e-05,0.00014728308,0.000108748674,0.014570802,0.016793728,0.070488244,0.008569121,0.027423412
0.034306586,0.0011720061,0.5549735,7.6919794e-05,7.748604e-07,0.0033462346,0.00044319034,0.005039811,0.00067409873,0.050842732
0.0044846535,2.3543835e-06,4.9889088e-05,0.00021970272,0.00015741587,0.003774941,0.0045256317,0.00023397803,0.9966129,0.0009824038
0.0,0.9974413,0.00011521578,0.00020876527,4.2527914e-05,0.0031779706,0.0038113892,0.0030296147,0.0017321408,0.0044092834
1.3828278e-05,0.14829141,0.014275253,0.99287176,0.014108509,0.049642235,0.0067151487,7.748604e-07,0.34191543,0.0021731257
0.014701694,0.014752209,0.03948441,0.00049880147,5.5730343e-06,0.0054615736,0.0021190941,7.972121e-05,0.015781581,0.911442
0.3530684,0.0,4.914403e-05,2.7954578e-05,3.1590462e-06,0.0008930266,0.0007157028,0.96864325,3.4034252e-05,0.000585258
2.9802322e-08,0.0,6.109476e-06,0.99999344,0.04844439,0.0033088028,0.00047174096,5.9604645e-08,0.64320374,0.0
0.9092778,1.0251999e-05,0.011226863,8.097291e-05,5.3167343e-05,0.0073028207,0.0045116246,0.00055134296,0.087970376,0.009747416
0.9885406,1.7881393e-07,0.00066396594,0.00010377169,1.2636185e-05,0.019470394,0.0049258173,0.00041097403,0.0033904016,0.0026165545
0.9964514,0.0,0.00014391541,3.966689e-05,1.963973e-05,0.0058280826,0.0016633272,0.0007330477,0.0013655424,0.00042051077
0.95421356,0.0,5.632639e-06,1.1444092e-05,4.5895576e-06,0.008429229,0.00037309527,4.014373e-05,0.17602164,0.0007841289
1.7881393e-07,0.000102579594,0.67264736,0.009209007,0.9842223,0.18347037,0.01616767,0.0006939173,0.9467993,5.5134296e-06
3.451109e-05,4.529953e-06,0.00044953823,2.3543835e-05,1.2785196e-05,0.9999969,0.008954406,0.008921176,0.002828002,4.1663647e-05
0.98540485,1.9669533e-06,0.00020074844,0.000308007,9.655952e-06,0.0029205084,0.0024134517,0.00017431378,0.0024739802,0.044969648
0.9182819,1.3917685e-05,0.00046867132,0.00055783987,2.259016e-05,0.0029610097,0.004840702,0.00010538101,0.0033328533,0.23919195
0.9992167,0.0,3.0726194e-05,3.2186508e-06,6.2584877e-07,0.0021722615,0.00051650405,0.00068345666,6.7055225e-05,0.00057411194
0.00011861324,3.1858683e-05,1.5228987e-05,0.00010871887,2.9802322e-08,6.4074993e-06,0.00011947751,2.682209e-07,0.0010055602,0.99987787
0.0020692945,0.024491549,0.40967977,0.0020978153,0.00012481213,0.020386577,0.15846404,8.5800886e-05,0.9436728,0.0097377
0.03956297,0.014407158,0.82705945,0.0017410517,2.6017427e-05,0.01022467,0.0014406741,6.4879656e-05,0.016156584,0.033048004
0.0010074675,0.0003066659,0.000116199255,4.515052e-05,5.185604e-06,0.033442706,0.76789665,0.0002565086,0.55617803,0.013229907
0.0015553534,8.940697e-08,0.00013449788,0.00064375997,0.5570786,0.9941429,0.0016092956,0.00023442507,0.0015631914,2.7000904e-05
0.3264512,0.000111192465,0.0007914901,0.00029447675,1.2427568e-05,0.006060213,0.0121741295,0.005469322,0.0085197985,0.511002
0.0026324391,2.7120113e-06,0.00015890598,0.9981664,3.4362078e-05,0.016578048,0.014798641,1.385808e-05,0.004489094,7.274747e-05
1.5795231e-06,2.9802322e-07,0.014273405,0.00017639995,0.1146549,0.0014543235,0.03880623,0.014595479,0.9990172,4.1246414e-05
0.99533844,2.9802322e-07,0.0004031062,4.965067e-05,3.2186508e-06,0.006323844,0.0006543696,1.5586615e-05,0.0027494133,0.0009316802
0.6358067,2.3841858e-07,0.0007683635,0.00020989776,2.1755695e-06,0.001324892,0.0020785332,0.07446846,0.031708688,0.0014992654
0.97918737,1.1026859e-06,0.00042176247,8.749962e-05,1.5318394e-05,0.010823131,0.0022886693,6.219745e-05,0.028164983,0.0016236007
0.0015892982,1.7881393e-07,1.3411045e-05,0.0002502203,0.00069871545,0.00088089705,0.005578667,0.00014278293,0.99888355,0.00016203523
1.0251999e-05,0.9945816,0.00241369,0.014638573,6.264448e-05,0.012811899,0.04727751,1.3232231e-05,0.986544,0.0002361238
0.98745835,1.2218952e-06,0.00057059526,3.734231e-05,3.33786e-06,0.007091582,0.0045222044,1.3500452e-05,0.00033390522,0.0008279383
0.28582186,5.635619e-05,0.64555085,0.0026561618,0.0022276342,0.008214146,0.008547753,0.00026389956,0.2076818,0.0086913705
5.9604645e-08,0.00096422434,0.00036168098,0.99970615,0.0009212792,0.17590913,0.813661,8.940697e-07,0.91566026,1.4692545e-05
0.96184075,1.1920929e-07,0.0001501441,1.9192696e-05,1.1861324e-05,0.004868239,0.0020751357,0.14719838,0.0006519556,0.0019887388
0.0003028512,5.030632e-05,0.99955684,0.011446953,0.0027419627,0.004842043,0.0034581125,0.00054222345,0.13973057,0.0027672052
0.0043090284,0.016456723,0.06326872,0.0015904605,0.00017255545,0.076744914,0.842063,0.000102847815,0.18377295,0.011402994
0.0024644136,0.0013192594,0.010490835,0.00042381883,5.5134296e-06,0.0008517802,0.006446749,2.2292137e-05,0.06821486,0.9618072
0.99343127,3.5762787e-07,0.00011792779,1.9162893e-05,3.8444996e-06,0.0067670345,0.004190415,0.00016880035,0.0017185807,0.007918656
0.19199625,4.8458576e-05,0.007873118,0.000110030174,2.4020672e-05,0.83175933,0.053863913,0.0004182756,0.0014717281,0.0053985715
0.0,0.9988876,0.00017049909,0.9903245,0.0001360774,0.01305151,0.0017530322,2.9802322e-08,0.94166493,7.5101852e-06
4.172325e-07,0.0011320412,0.0021051168,0.007992059,5.2124262e-05,0.9997587,0.5993128,1.8715858e-05,0.013018936,0.00046303868
3.0100346e-06,2.682209e-07,0.97819066,0.00014418364,0.00013241172,0.0007929206,0.00096690655,0.99509144,0.0014283359,7.751584e-05
0.00035327673,2.9802322e-08,3.939867e-05,3.7282705e-05,3.734231e-05,0.0018902719,0.0049087703,0.0026983023,0.99007595,0.0036000907
7.7962875e-05,0.9948286,0.00078070164,0.001878649,2.2172928e-05,0.029217482,0.012239158,0.00014874339,0.038175404,0.017146379
1.1265278e-05,0.00034847856,0.96736073,0.99755704,0.00097200274,0.00797987,0.016323745,7.748604e-07,0.91601706,8.165836e-06
0.00024068356,2.0861626e-07,1.9162893e-05,6.651878e-05,3.8564205e-05,0.00092208385,0.008619219,0.021743178,0.9940673,0.0019789934
2.3841858e-06,0.00046876073,0.007793367,0.99634075,0.9801607,0.9990366,0.008340687,8.136034e-06,0.00024145842,2.6911497e-05
0.9812335,8.940697e-08,0.00096029043,1.4126301e-05,4.4703484e-06,0.0028062165,0.00087693334,0.0013256967,0.010165542,0.006372392
0.9978634,0.0,1.680851e-05,6.1690807e-06,6.556511e-06,0.003431201,0.00096070766,0.00051525235,0.00023052096,0.00017306209
6.714463e-05,6.2286854e-06,0.1115897,0.0016795099,0.0002129972,0.9996917,0.011412382,0.0088609755,0.000495255,0.002277106
0.19155836,0.0,0.000207901,1.2785196e-05,7.4505806e-07,0.0014088452,0.00054094195,0.9870014,2.8759241e-05,0.0005044937
0.0,0.0,6.455183e-05,4.646182e-05,9.23872e-07,1.0,4.9471855e-06,4.3213367e-06,0.0026445389,1.4305115e-06
0.06584966,1.7285347e-06,0.00083345175,0.00010603666,1.1473894e-05,0.9982017,0.0023424327,6.106496e-05,0.008960664,0.0003299713
0.0,1.8239021e-05,0.0007505417,0.00048968196,2.4795532e-05,1.0,0.00078326464,3.5315752e-05,0.0276438,5.9068203e-05
0.0010322332,2.7418137e-06,0.0004900396,1.013279e-05,9.298325e-06,0.0014551878,0.0063547194,0.00025194883,0.11452952,0.9559615
1.8924475e-05,6.854534e-07,0.99971783,0.003666073,0.00014534593,0.0053379238,0.003384322,0.06552607,0.001447916,0.0016492903
1.9431114e-05,1.4901161e-07,6.237626e-05,0.9999518,1.9967556e-06,0.0026106536,0.003927171,2.3841858e-06,1.4305115e-06,1.1622906e-06
0.39169946,5.364418e-07,0.00035190582,0.00049749017,0.00066527724,0.00892964,0.0018414557,0.00014480948,0.40156063,0.012183428
0.9988177,0.0,2.9683113e-05,6.67572e-06,6.2584877e-07,0.0040250123,0.0008996725,0.0002413094,6.145239e-05,0.00091698766
0.034344465,5.364418e-07,0.00011846423,0.00017297268,0.00078839064,0.49310166,0.0029876828,0.00021603703,0.016831547,0.0012906492
0.0269818,2.926588e-05,0.0012898445,2.2560358e-05,3.1590462e-06,0.12799606,0.19401833,0.008740276,0.1521753,0.0038689375
5.9604645e-08,0.0,0.99928164,6.556511e-06,7.677078e-05,0.012068808,0.00019797683,5.00679e-06,0.0015760362,1.4901161e-07
0.7666868,2.8312206e-06,0.0006823242,4.5478344e-05,1.9341707e-05,0.23376885,0.01227206,0.0010012388,0.0012671053,0.001080662
0.8488331,5.364418e-06,5.942583e-05,9.8615885e-05,1.9073486e-06,0.0077732205,0.009675562,5.8859587e-05,0.04910028,0.104592204
0.108900696,0.0010959208,0.010331869,7.200241e-05,3.8146973e-06,0.004411131,0.0055143237,0.00010243058,0.012305617,0.79551524
1.23381615e-05,1.7851591e-05,0.00018039346,0.00027745962,2.7120113e-05,0.9898275,0.012347937,0.010033131,0.47979677,0.0011455715
0.3324382,4.4107437e-06,0.0005258322,9.506941e-05,1.8715858e-05,0.01800698,0.019291937,0.3124287,0.019367576,0.016809672
0.10994595,4.2915344e-06,9.2595816e-05,0.00029993057,3.7550926e-05,0.653386,0.0071130693,0.0009665489,0.11646822,0.008387715
0.9988266,0.0,2.6226044e-05,3.322959e-05,2.3841858e-07,0.00088220835,0.00019028783,0.0011931956,6.645918e-06,3.373623e-05
0.8013114,5.662441e-07,8.1300735e-05,0.0011053383,1.963973e-05,0.0054418445,0.0013751984,0.00011962652,0.5323658,0.0003350377
1.04904175e-05,0.11765349,0.66734064,0.0014155507,0.00035569072,0.9933163,0.0064578652,4.6014786e-05,0.01643902,0.00022500753
0.93344223,2.7120113e-06,0.0009061098,2.5838614e-05,6.16312e-05,0.00799495,0.006231576,0.0062366426,0.029212207,0.006798327
0.0,0.002015829,2.6524067e-06,0.99996674,0.0013296008,0.009606391,0.9981945,0.0,0.0001411736,9.983778e-06
0.86686254,2.2649765e-06,0.00010481477,1.3738871e-05,1.0728836e-06,0.027202576,0.020261884,0.01087907,0.0021565259,0.10625109
0.00015488267,0.00020861626,0.0010205209,0.9996784,0.00056800246,0.011826843,0.0065377355,2.6226044e-06,0.008389026,0.00026100874
0.9841597,1.9967556e-06,0.00044342875,1.8656254e-05,3.5762787e-07,0.0051540434,0.0015702844,0.000108361244,0.02096796,0.004783243
0.0019546747,3.427267e-06,0.00011301041,0.0002078712,6.79791e-05,0.005539775,0.006024778,0.0023522377,0.9440952,0.015793562
0.0,0.007903248,0.0003362,0.00015476346,2.4616718e-05,0.99999017,0.00017678738,9.807944e-05,0.00031343102,1.3113022e-06
0.00050902367,1.9073486e-05,0.002886206,0.99789286,0.00039169192,0.00991711,0.029659748,9.7721815e-05,0.001167804,0.0006427467
0.9928014,2.0861626e-07,0.00016286969,0.00017413497,3.2424927e-05,0.005679697,0.0038955808,6.0230494e-05,0.0030712187,0.0044204295
8.1807375e-05,0.0,1.6093254e-05,4.056096e-05,0.00049865246,0.0005094111,0.0015366673,0.00039803982,0.9998798,2.2649765e-06
0.076988995,1.7136335e-05,0.9343395,0.00042372942,2.1785498e-05,0.008030534,0.011149406,0.011105657,0.008933067,0.0021012425
0.00061902404,0.9994097,0.0039156377,0.000225842,5.3942204e-06,0.01070112,0.0018798113,1.2814999e-05,0.0043390095,0.0014020503
0.9966291,1.1920929e-07,0.00010484457,5.2303076e-05,1.218915e-05,0.0055916607,0.0022880733,0.00051906705,0.002007991,0.00082340837
0.043042243,4.887581e-06,0.0023917556,4.3809414e-06,1.758337e-06,0.001462996,0.003930092,0.00013667345,0.97631,0.0054544806
0.9354638,8.940697e-08,0.00023916364,5.7697296e-05,0.0002911687,0.0027299225,0.0017595291,0.0008085966,0.13532233,0.0018543601
1.7881393e-07,0.003695935,0.9812548,0.5270686,0.0033897161,0.038312584,0.7480238,6.651878e-05,0.9842168,1.2755394e-05
0.041205287,1.4305115e-06,3.3408403e-05,0.00025430322,0.00057426095,0.001244843,0.004052788,0.00058713555,0.98746026,0.0011819005
0.9914228,1.8775463e-06,0.0004967153,6.169081e-05,1.1116266e-05,0.006362915,0.0034141243,0.00010165572,0.0007580817,0.015563905
0.8933703,2.9802322e-08,8.5651875e-05,1.3291836e-05,1.7881393e-07,0.004620135,0.0024674833,0.46776745,5.698204e-05,0.0019461513
0.06352389,1.0669231e-05,0.00043532252,0.00011301041,2.95043e-06,0.023251325,0.96738875,1.1742115e-05,0.00026011467,4.801154e-05
0.747681,5.0514936e-05,0.0010407269,0.00023040175,4.1514635e-05,0.0077171326,0.00303182,7.253885e-05,0.47814265,0.021848708
0.588501,5.558133e-05,0.0018314421,6.312132e-05,2.2649765e-06,0.0063874125,0.0048238635,2.7656555e-05,0.25242406,0.049705237
0.009092271,0.0,1.7285347e-06,4.941225e-05,1.3589859e-05,0.0016036034,0.0011012852,7.1942806e-05,0.9960262,6.735325e-05
0.89794195,1.7285347e-06,0.00022864342,0.00031667948,6.8217516e-05,0.0026813447,0.017173618,0.00771752,0.0012264252,0.089497775
5.6892633e-05,9.405613e-05,0.03649959,0.00040614605,6.3568354e-05,0.0014959872,0.05000645,0.001140207,0.9978766,0.0002694428
0.0,0.0,1.6093254e-06,0.9999846,0.9999974,0.00013118982,0.00013712049,0.0,0.0022579134,0.0
0.8919252,0.0,1.2487173e-05,5.5015087e-05,0.00029993057,0.0028877854,0.0004156828,0.0007227957,0.1866599,0.0029533207
0.9291415,4.529953e-06,0.01373449,2.3901463e-05,3.874302e-06,0.005580932,0.0022332668,0.008866221,0.14438209,0.018105656
0.9844979,0.0,0.00012868643,1.4126301e-05,3.7252903e-06,0.0054841638,0.003160417,0.006156862,0.020223767,0.00061783195
2.7120113e-06,3.8266182e-05,5.954504e-05,0.00014564395,1.1920929e-07,0.01999262,0.99996704,8.046627e-06,0.0025098026,0.0002861917
0.00058457255,1.7881393e-07,0.001221925,1.6748905e-05,0.00017637014,0.004972756,0.0036889315,0.8744802,0.002887547,0.023442596
1.4424324e-05,2.8699636e-05,0.00039625168,0.9989997,1.4811754e-05,0.0023385882,0.011899799,1.3500452e-05,0.00014913082,0.0021166801
1.731515e-05,0.00012919307,1.0341406e-05,0.00019779801,1.31726265e-05,0.98090214,0.28780842,1.66893e-05,0.033604026,0.0012272596
2.682209e-07,0.000120431185,0.0030269325,0.002382338,0.32096812,0.017778784,0.98962736,0.00019556284,0.89346147,4.8279762e-05
0.00058317184,2.5063753e-05,0.9994495,0.0007916987,0.00038301945,0.007374823,0.005206436,0.00021922588,0.24293089,0.0010949373
0.0013332665,0.0,7.2419643e-06,3.2931566e-05,1.809001e-05,0.00026926398,0.0033966303,0.0011546314,0.99920607,3.5315752e-05
0.9909345,1.7881393e-07,0.00012469292,3.72231e-05,1.4215708e-05,0.005815476,0.0040858984,0.004197538,0.0011930764,0.002822578
0.96992546,3.0696392e-06,0.0007760823,0.00014382601,5.4240227e-06,0.0022485554,0.0021802485,0.00032535195,0.0037917495,0.036726594
0.0115198195,0.0,1.168251e-05,0.9997284,4.389882e-05,0.0013514757,0.0017903745,6.315112e-05,3.7550926e-06,1.680851e-05
0.0016540289,2.503395e-06,0.00020325184,0.9996567,8.255243e-06,0.008160621,0.01000309,7.659197e-06,2.270937e-05,1.9431114e-05
0.013719767,8.940697e-08,5.1021576e-05,2.092123e-05,0.000121206045,0.00051543117,0.0025295913,0.0003723204,0.9970249,1.809001e-05
0.98417413,1.0728836e-06,0.0007354021,0.00031781197,2.6196241e-05,0.0053364336,0.0027430058,0.00011906028,0.0047986805,0.011536211
0.990463,2.9802322e-07,0.002711445,2.0563602e-05,7.212162e-06,0.006877184,0.002168119,0.0015868247,0.0042189956,0.001829803
0.14459431,2.9057264e-05,0.0002527535,0.00012412667,6.854534e-07,0.015726686,0.46098304,9.009242e-05,0.0038905442,0.0018266737
1.2397766e-05,0.00024238229,0.0003183186,0.00014346838,1.0639429e-05,0.14599097,0.73756325,0.050397098,0.0040792823,0.0008008182
0.77189857,1.3202429e-05,0.0008726716,0.00021058321,8.371472e-05,0.05072844,0.0031994283,0.00089251995,0.21949336,0.006666124
0.20988804,1.9997358e-05,0.001601845,0.00045374036,6.5267086e-06,0.024680763,0.6488155,0.00016823411,0.005653143,0.001254648
0.0018852949,6.7055225e-06,0.00026509166,6.92904e-05,1.7225742e-05,0.0056973994,0.008923739,0.016477883,0.8434103,0.056886733
0.76599723,5.4836273e-06,0.0014207661,0.00013405085,1.7821789e-05,0.0043007135,0.0022261143,0.0020604432,0.5912461,0.008162111
0.00022661686,1.50203705e-05,0.0001347363,0.005641252,0.0017150044,0.0020649433,0.0070095956,0.00015050173,0.99960494,0.00032901764
6.2286854e-06,0.9931772,0.0046512783,0.0031058788,0.0002758801,0.014894724,0.012680948,1.40964985e-05,0.99538267,0.00011587143
0.009098798,3.5762787e-06,4.2527914e-05,0.000119268894,1.424551e-05,0.0022273958,0.005738348,0.0008068383,0.98873186,0.009717107
8.544326e-05,5.364418e-07,0.9998896,0.00014171004,0.00019854307,0.007013947,0.0011250973,6.470084e-05,0.95075345,4.172325e-06
8.195639e-06,0.9985275,0.003405273,0.29156697,0.0010322928,0.018597424,0.0155130625,1.2516975e-06,0.0476813,0.0027166605
0.15859404,1.4901161e-07,1.5825033e-05,5.108118e-05,1.4513731e-05,0.0006366074,0.0023524165,0.00028690696,0.9468206,0.001727879
0.0,0.99760884,2.4467707e-05,0.00050643086,7.739663e-05,0.012716144,0.0053691864,3.2186508e-06,0.99454725,8.004904e-05
0.00058716536,0.9598378,0.0058826804,0.011173099,5.990267e-06,0.025480896,0.069444805,1.66893e-05,0.43377063,0.02171582
0.0053512156,0.81656706,0.025040686,0.002370298,9.384751e-05,0.011764288,0.004246235,0.0006788671,0.008812308,0.36540127
0.0,1.5586615e-05,0.0044332743,9.447336e-05,7.459521e-05,1.0,0.0028945208,4.7683716e-07,0.04950902,7.748604e-07
1.1920929e-07,0.9971628,0.0031375587,0.02177921,0.0077038705,0.005342424,0.003459841,9.298325e-06,8.812547e-05,0.0030481815
0.0018088818,0.00068050623,0.99194324,0.0055184364,0.00057679415,0.0037099123,0.0031928718,0.0006456375,0.6057534,0.0013278723
0.6391094,1.3917685e-05,0.0014614761,1.859665e-05,1.0728836e-06,0.0032580197,0.004148245,0.000867337,5.7160854e-05,0.7843375
1.1026859e-06,0.0016855001,0.017304271,0.9289774,0.20262578,0.99987924,0.0058202147,1.0281801e-05,0.011750877,0.00044763088
0.9739893,8.940697e-08,0.000105232,6.425381e-05,0.0009793043,0.010634214,0.0022225678,0.0003886521,0.0054044127,0.001529038
2.3841858e-07,0.0006964803,0.0010682046,0.999933,0.0013073683,0.04613307,0.63260317,1.7881393e-07,0.035107315,1.4305115e-06
0.1350058,7.748604e-07,0.00055223703,0.00027385354,5.605817e-05,0.0023579597,0.0042007864,0.94341713,0.0007096529,0.008221954
0.9074857,3.2484531e-06,0.00022232533,0.00018966198,6.7949295e-06,0.014740944,0.0053389966,0.013382494,0.031490684,0.0065423846
0.9044457,5.9604645e-06,0.029192984,0.00038552284,1.642108e-05,0.014540404,0.01744017,0.0035919845,0.00071051717,0.056162298
0.9942713,2.9802322e-08,0.00013181567,4.196167e-05,2.5629997e-06,0.0029157102,0.0014203489,0.00018966198,0.003625244,0.0022747219
0.00011861324,3.1858683e-05,1.5228987e-05,0.00010871887,2.9802322e-08,6.4074993e-06,0.00011947751,2.682209e-07,0.0010055602,0.99987787
0.10548049,8.940697e-08,3.874302e-05,1.463294e-05,6.2584877e-07,0.0066490173,0.017416209,0.6129182,0.19428244,0.014328808
0.00048577785,1.847744e-06,0.00021702051,0.0011137128,0.01470089,0.0013141334,0.0063331723,2.0682812e-05,0.9991648,0.000118911266
0.00013026595,3.415346e-05,0.00094679,0.9967941,0.034109592,0.0059327185,0.006552875,2.488494e-05,0.008954078,0.0011499822
0.111569434,8.34465e-07,0.0020778477,0.00024715066,0.0042553246,0.003648609,0.0016435087,0.07341504,0.48329234,0.0071428716
6.854534e-06,0.040905446,0.01471737,0.9994694,0.009784341,0.033065796,0.08096194,5.3346157e-06,0.06960109,0.00025179982
0.0017362535,7.4505806e-07,6.9856644e-05,0.00029188395,9.948015e-05,0.001416415,0.017957479,0.0011355877,0.99913967,8.2194805e-05
0.99275744,0.0,6.842613e-05,5.698204e-05,7.688999e-06,0.00804624,0.0004912615,0.00023457408,0.033748507,0.001435399
0.01148057,8.940697e-08,0.0011930168,0.00015547872,2.7120113e-05,0.018541664,0.95936453,0.0016363859,6.824732e-05,8.824468e-05
0.98785675,1.4007092e-06,0.0008929372,0.00012844801,7.0929527e-06,0.0034807622,0.0024555326,0.008416116,0.00026127696,0.06539333
0.0,0.00030365586,4.631281e-05,0.9998473,0.9633824,0.97640383,0.9162469,0.0,0.00038677454,4.7683716e-07
0.0042794943,0.0003412068,0.024510711,0.00020831823,0.00012549758,0.0029206574,0.0034439862,0.007929742,0.008519083,0.8488489
0.00013920665,0.0,3.8146973e-06,0.99997693,2.9802322e-07,0.00019830465,0.00044947863,3.874302e-06,9.834766e-07,1.0937452e-05
0.0012195706,2.348423e-05,1.9431114e-05,7.867813e-05,1.7881393e-07,0.061511427,0.9971816,0.0005148947,0.0013284087,0.00024533272
0.030127108,0.0,8.6545944e-05,3.054738e-05,8.940697e-08,0.0013463199,0.0012217462,0.99738896,2.5302172e-05,0.0009546578
0.00040251017,2.7447939e-05,0.00037935376,0.9994663,0.0019622445,0.009481251,0.00708586,8.940697e-08,0.025217146,7.6025724e-05
5.662441e-07,0.9981629,0.0002476871,0.00063073635,4.4465065e-05,0.047652125,0.0052932203,4.142523e-06,0.89420116,0.00062799454
7.253885e-05,1.1920929e-07,1.7881393e-06,0.00022175908,0.0,0.0001385808,0.00150612,5.143881e-05,9.384751e-05,0.99991864
0.0018966794,1.3589859e-05,0.0005634725,3.0070543e-05,1.8179417e-06,0.0011125505,0.007734239,0.0026155412,0.070017725,0.95276606
0.8831378,1.2218952e-06,0.0002156496,1.1354685e-05,7.95722e-06,0.0035782158,0.0026889145,0.00039291382,0.50462055,0.0013038218
0.00077322125,4.2706728e-05,0.0011958182,0.0005248785,9.2327595e-05,0.9998738,0.013834536,2.4825335e-05,0.051286817,0.00090032816
2.9802322e-08,1.7881393e-07,0.00078368187,0.9999832,0.9694809,0.0002964437,0.0002952516,5.364418e-07,2.2411346e-05,5.3048134e-06
0.02095902,0.0,1.296401e-05,1.4305115e-06,2.9802322e-08,0.0017875731,0.0009505749,0.9995439,1.40964985e-05,0.00029584765
0.0036823153,0.0,1.4603138e-06,5.3942204e-06,1.2218952e-06,0.0013498366,0.0021986365,0.0046480596,0.9951818,0.00022253394
0.98547304,8.940697e-08,0.0007368922,4.8607588e-05,3.874302e-07,0.007923812,0.0031987727,0.003575176,4.7832727e-05,0.00050118566
0.050446928,2.6404858e-05,0.0005735159,5.2392483e-05,6.556511e-07,0.0013072789,0.018925905,0.7623706,0.16788569,0.004372686
0.0010636151,5.543232e-06,0.9998165,0.012278289,0.0012739897,0.010225773,0.0049802363,0.00029814243,0.018224716,0.00031420588
0.0005399585,1.6391277e-06,0.000718981,4.2676926e-05,0.0014383197,0.0008915067,0.0021501482,1.9311905e-05,0.9993532,0.00019168854
1.7523766e-05,0.0033063293,8.493662e-05,0.00010243058,1.0699034e-05,0.08966181,0.98147327,4.300475e-05,0.066594005,0.0025629997
0.0633719,0.0,1.6331673e-05,6.645918e-06,1.1920929e-06,0.0018656254,0.0028008819,0.0183599,0.95516217,0.0007250309
0.0,2.4735928e-06,0.0011095703,0.00023770332,2.0563602e-06,0.9999997,0.00081688166,0.00015816092,0.001081109,6.3985586e-05
0.99037325,0.0,9.6559525e-05,8.583069e-06,2.0563602e-06,0.01025933,0.0013060272,0.0023927689,0.009131789,0.0012552738
0.9762888,5.364418e-07,0.00042834878,5.6922436e-05,7.7188015e-06,0.007081896,0.0014863908,0.0069932938,0.00090652704,0.0016582608
0.03178832,0.00028043985,0.0041638613,0.00044184923,9.346008e-05,0.002555132,0.0022789836,6.350875e-05,0.962562,0.030351818
0.0013732016,0.00017106533,0.0017496645,0.000121980906,3.2782555e-07,0.008033127,0.9976895,2.3573637e-05,0.00042259693,0.0025674105
0.99875873,0.0,0.00012764335,9.804964e-06,5.9604645e-08,0.0041309297,0.00033417344,0.0001270771,0.00039049983,0.00043570995
6.6161156e-06,0.00016635656,0.0012978315,0.9999713,4.914403e-05,0.008316904,0.0042088926,1.1622906e-06,0.00044077635,2.3841858e-06
0.0022636652,2.9802322e-08,3.4451485e-05,4.887581e-06,2.9802322e-07,0.0017153025,0.0014304519,0.99979377,0.00015476346,0.00038054585
0.0059690475,1.1026859e-06,0.00022014976,0.00014001131,2.2917986e-05,0.002535969,0.009987682,0.00036409497,0.9968063,9.530783e-05
0.016753137,0.01420781,0.013094842,5.0246716e-05,1.847744e-06,0.011854291,0.003823787,1.6182661e-05,0.72558546,0.04684922
3.695488e-06,0.0,2.9206276e-06,1.3709068e-06,2.9802322e-07,0.0003771782,0.0006635785,0.9999974,0.00020089746,3.194809e-05
0.0011711717,0.0009024739,0.00041630864,0.00063943863,7.4505806e-07,0.017006338,0.9794302,0.000821352,0.0015639067,0.058331877
0.048721313,0.0,8.109212e-05,1.66893e-05,1.2814999e-05,0.0010023713,0.0036678016,0.0020893812,0.9767396,0.0005003512
0.0023740828,0.0030555725,0.0007092953,0.0019533932,2.0861626e-06,0.0012869537,0.01923287,1.013279e-06,0.049303293,0.9752809
0.000114023685,0.009862065,0.027549148,0.02075702,0.0016528368,0.012077928,0.0036726594,2.7626753e-05,0.95649135,0.033760905
0.02123186,6.2584877e-07,0.00013378263,0.00011500716,0.00015115738,0.0010811687,0.0075546205,0.0020481944,0.98431706,0.0015280545
0.00012236834,2.7120113e-06,4.5597553e-05,0.00077933073,0.00013795495,0.9999523,0.01091969,1.7374754e-05,0.0025482476,8.2850456e-05
0.9962357,5.9604645e-08,0.00017365813,3.8564205e-05,3.9041042e-06,0.00858748,0.0015459657,0.000100165606,0.00090014935,0.0015266836
0.99555874,8.940697e-08,0.00021111965,1.6182661e-05,1.2874603e-05,0.0055137575,0.0017957389,0.001416564,0.0034666657,0.0015588701
0.9710468,5.364418e-07,0.00016745925,1.6987324e-05,1.4007092e-06,0.0055633187,0.00052425265,0.0031912625,0.0024183393,0.0005054176
0.9895766,5.066395e-07,0.019564956,0.00029587746,2.0503998e-05,0.013992906,0.0037103295,0.0013332069,0.0003412366,0.00202173
0.00020101666,0.0,1.5228987e-05,0.00024721026,0.005202383,0.00047585368,0.0021850169,0.00019413233,0.999751,7.390976e-06
0.9779875,1.14142895e-05,0.003176272,0.00012028217,8.404255e-06,0.009729505,0.0045185983,0.0006368458,0.00058957934,0.04937616
0.037381113,4.8577785e-06,0.0012837052,0.002627641,3.9815903e-05,0.9996208,0.014207423,0.00062412024,0.0013207793,0.0016574562
0.5023429,5.9962273e-05,0.00085663795,0.000107586384,1.0311604e-05,0.009835333,0.0040409565,0.0003068447,0.8211498,0.011647254
0.33145326,0.0,0.00036126375,4.181266e-05,1.013279e-06,0.0067332685,0.0011336803,0.8880752,9.611249e-05,0.00952974
0.00044858456,0.99010956,0.019180954,0.0014723539,2.0951033e-05,0.003651619,0.00085419416,0.00089627504,0.05271837,0.017298222
0.0,0.9999831,0.00017559528,0.0005506873,0.0010932684,0.0040815473,0.00022569299,0.000114917755,0.044290245,0.00019389391
0.9966079,0.0,0.00010544062,2.4020672e-05,3.1292439e-06,0.0042417943,0.0012191534,0.002470404,5.9843063e-05,0.0015721321
0.00010713935,1.0311604e-05,0.00017529726,0.028523773,0.020161688,0.99929917,0.006023258,6.2167645e-05,0.09957972,9.831786e-05
0.9977889,0.0,8.863211e-05,1.4543533e-05,5.066395e-07,0.006853521,0.0003413856,0.0001860261,0.002075076,0.0012758076
8.4728e-05,1.847744e-06,0.000836581,0.99972093,0.9090275,0.0034087598,0.0010180473,7.1525574e-07,0.23616955,8.583069e-06
0.009121984,0.00013881922,0.0011252463,0.0002335012,9.828806e-05,0.0029194355,0.011863112,8.612871e-05,0.98103595,0.03948745
0.943982,0.0,3.1471252e-05,5.6922436e-06,8.940697e-08,0.00075113773,0.00068846345,0.42223996,4.6372414e-05,0.0006095469
0.048267215,1.7881393e-07,2.3454428e-05,3.644824e-05,4.056096e-05,0.003123492,0.004564643,0.006493926,0.97911125,0.000982821
0.9941175,8.34465e-07,0.00036409497,0.00010436773,1.0728836e-05,0.009986252,0.003937185,8.422136e-05,0.0012450516,0.004617244
0.005194694,0.00024184585,0.010537863,0.0006208122,0.00081011653,0.0039111376,0.018730521,0.00039684772,0.9866369,0.0059497952
0.00054597855,4.0590763e-05,0.000582695,0.99923164,2.5182962e-05,0.014379889,0.008958787,2.8312206e-06,0.046987742,0.00017881393
0.9902892,2.0861626e-07,0.00031924248,5.38826e-05,7.1823597e-06,0.0056494176,0.0011966228,0.00060230494,0.003401339,0.00962922
0.028746456,7.0929527e-06,0.00029858947,0.0001860559,0.0004375875,0.0017201304,0.0029850006,5.841255e-06,0.9850619,0.0012821853
8.940697e-08,4.172325e-07,0.00017297268,4.5895576e-06,1.3411045e-06,1.0,0.0011081398,2.887845e-05,0.0022757351,1.1742115e-05
0.8969904,2.9802322e-08,5.0842762e-05,3.2812357e-05,4.5627356e-05,0.0059969127,0.0013508201,0.0007933974,0.28660548,9.2059374e-05
0.0035542548,2.5451183e-05,0.000113755465,0.00042364,0.00010070205,0.0018002987,0.0034713745,2.771616e-06,0.9883194,0.016866714
0.00056257844,1.3411045e-06,0.0003118217,0.99983275,2.95043e-06,0.0050446987,0.006303519,6.7949295e-06,3.9190054e-05,3.6358833e-06
0.9884238,0.0,3.08156e-05,6.645918e-06,2.759695e-05,0.011484653,0.00076422095,0.008047253,0.00068199635,4.8041344e-05
5.236268e-05,5.5283308e-05,0.0005070865,0.9989524,0.0050173104,0.028627992,0.09404996,1.5944242e-05,0.0004990995,0.0007947087
0.00048226118,0.00092980266,0.008862793,0.99904644,0.045761347,0.013514161,0.019588351,5.0365925e-06,0.06000966,0.00017908216
1.5228987e-05,2.3543835e-06,6.9737434e-06,1.66893e-06,2.9802322e-08,0.014745474,0.9518416,0.9427464,0.000577122,0.0003861487
0.00065621734,2.9802322e-07,5.2154064e-05,4.3213367e-06,3.2186508e-06,0.002711773,0.0045255125,7.31051e-05,0.26082212,0.8379731
0.0036838949,7.557869e-05,0.004401207,0.9962287,0.034119844,0.016601175,0.004327148,5.760789e-05,0.006302178,0.00044846535
0.44773608,1.4394522e-05,0.00072827935,0.00031092763,0.0001335442,0.0035395324,0.0023270845,9.405613e-05,0.7787738,0.008766443
5.066395e-07,0.99741054,0.0048758686,0.79669476,0.000531584,0.010514379,0.037189275,1.66893e-06,0.9848452,8.3208084e-05
8.389354e-05,0.0,7.748604e-06,0.9999787,0.00078973174,0.001981467,0.0010653734,5.9604645e-08,7.164478e-05,1.9669533e-06
0.05580023,9.030104e-06,5.0604343e-05,1.642108e-05,7.1525574e-07,0.0020310879,0.002375722,0.00013801455,0.019425899,0.87526417
2.026558e-06,0.0,6.6936016e-05,0.9995024,6.735325e-05,0.0005968213,0.0013166964,0.00017422438,4.3064356e-05,7.095933e-05
4.1007996e-05,0.00021857023,2.503395e-06,1.92523e-05,2.3841858e-07,0.013679236,0.98194396,0.00045195222,0.16296953,0.0062893033
0.01011917,0.00012999773,0.96047854,0.0020240247,0.0041244924,0.009814858,0.009768218,0.00019577146,0.0690417,0.01568076
0.9070157,5.9604645e-08,7.06017e-05,4.8577785e-06,3.7252903e-06,0.00661397,0.0055988133,0.0196248,0.0011785328,0.06395787
0.91213524,2.8908253e-06,0.000395149,2.604723e-05,1.3113022e-06,0.007585883,0.0012877882,0.0011844337,0.23456103,0.018324733
4.6789646e-06,1.7881393e-06,0.0022877157,0.0003580153,1.3798475e-05,0.9999992,0.0017611384,0.0026589632,0.00019735098,0.00010305643
7.1525574e-07,0.0,0.0,2.1547079e-05,0.0,2.1666288e-05,0.00010845065,0.0,3.7550926e-06,0.9999887
0.9939436,0.0,3.0636787e-05,9.119511e-06,7.4505806e-07,0.0067338645,0.0003812611,0.0011514127,0.0013304353,0.0005223155
0.0034170747,3.2782555e-07,4.6789646e-05,0.000113487244,0.00039064884,0.0018394887,0.0021321476,0.0002065301,0.9984045,0.00022274256
0.9522346,7.748604e-07,0.0012609065,0.00012776256,8.440018e-05,0.009021491,0.0019244254,0.0006849766,0.0023804605,0.026039839
0.9310687,1.1920929e-07,4.643202e-05,4.9948692e-05,2.4855137e-05,0.0040643215,0.002885729,0.0012450516,0.13326553,0.0013265908
9.256601e-05,0.01114881,0.00043910742,0.00024485588,2.3633242e-05,0.022800267,0.9843825,8.764863e-05,0.047709346,0.0035792291
0.5104492,9.6708536e-05,0.71999574,0.00028339028,0.00015446544,0.014096469,0.0075214207,0.0069113076,0.0039775074,0.009910673
0.9445064,2.9802322e-07,0.0015330017,8.127093e-05,5.015731e-05,0.0040046275,0.0017966926,0.05596003,0.00022998452,0.006862551
5.7071447e-05,4.7683716e-07,7.301569e-06,0.0006018877,1.3619661e-05,0.00065147877,0.0038781166,0.00042915344,0.00051653385,0.995911
0.00037172437,0.9668697,0.0034423172,0.013536215,2.9712915e-05,0.010847688,0.011515319,1.4662743e-05,0.30712447,0.11543718
0.9776296,6.109476e-06,0.0005567372,9.062886e-05,4.2021275e-06,0.0072691143,0.0064894855,0.0001988411,0.0008226931,0.077335835
0.00029295683,0.0015406609,0.00461179,0.99871665,0.37065554,0.014671057,0.014351308,5.90086e-06,0.14071357,0.0010300577
0.5097231,7.8082085e-06,0.82367533,0.0002860129,5.2660704e-05,0.00427258,0.003074795,0.00087720156,0.028404623,0.002496481
0.118869245,8.940697e-08,2.82228e-05,1.1771917e-05,8.46386e-06,0.002031505,0.0023944378,0.0028092563,0.9178908,0.0005027354
4.4465065e-05,0.029280663,0.67939675,0.9383433,0.0002837181,0.010126084,0.07530022,3.7252903e-06,0.99276316,0.00048100948
0.46922833,3.6656857e-06,0.008507311,0.00067046285,4.544854e-05,0.007889241,0.008011788,0.49611863,0.0053681135,0.018754154
0.0051772,1.7017126e-05,0.9037539,0.000410676,0.0001398623,0.0054623187,0.008641779,0.00046178699,0.98481154,0.00014063716
0.9682929,2.95043e-06,0.000554502,9.483099e-05,3.9756298e-05,0.01999256,0.005494505,0.00020584464,0.0037876666,0.013593167
2.0861626e-07,0.0055929422,0.00517416,0.99754035,3.33786e-05,0.0046415627,0.5123472,9.23872e-07,0.88150185,7.677078e-05
5.9604645e-08,2.9802322e-07,0.00012558699,0.9999951,5.990267e-06,0.0010852218,0.0048325956,1.7881393e-07,2.3275614e-05,3.5762787e-07
0.010029167,0.0010432005,0.0036912262,0.00012898445,1.9013882e-05,0.0049033165,0.0188739,0.0006162822,0.9893923,0.0043587387
0.0,0.95836735,0.0012500584,0.9993834,0.25142607,0.5385394,0.024785578,1.5199184e-06,0.08630484,5.662441e-07
0.97228956,7.1525574e-07,0.0007004142,0.00010305643,9.23872e-06,0.012562841,0.0058164,0.03243783,0.0011282563,0.005526364
9.661913e-05,0.94040096,0.020639151,0.0043151677,8.010864e-05,0.027270615,0.07785231,2.6226044e-06,0.76088417,0.024388462
0.99678564,1.1920929e-07,0.00010487437,2.4229288e-05,1.7285347e-06,0.009302855,0.0010784864,5.787611e-05,0.0009652674,0.0006824732
0.0035861433,3.3974648e-06,0.00016593933,3.606081e-05,0.00035718083,0.0014173687,0.004278958,4.7385693e-06,0.99597657,0.00028318167
0.0006122887,0.0026295185,0.09480038,0.0002284348,0.00014695525,0.001778096,0.013661921,2.4586916e-05,0.9929744,0.0064490438
5.158782e-05,0.98908603,0.0014694631,0.6887924,0.00020831823,0.007044703,0.0039681494,7.748604e-07,0.1486882,0.009713829
0.9230305,3.5762787e-07,0.00022295117,6.151199e-05,4.3183565e-05,0.009423614,0.003840655,0.004376322,0.18057385,0.0028966367
2.9802322e-08,3.8802624e-05,0.0002579093,0.12980622,9.9629164e-05,1.0,0.0009048581,3.695488e-06,0.0019067526,2.7388334e-05
0.98378915,5.9604645e-08,0.00027939677,8.493662e-06,5.364418e-07,0.0030781329,0.0013300478,0.02049303,5.5611134e-05,0.012403607
3.1232834e-05,0.0,1.5199184e-06,1.7881393e-07,0.0,0.00024393201,0.00072816014,0.9853832,0.9965302,5.841255e-06
0.00027298927,0.9482542,0.016127765,0.010907024,7.1287155e-05,0.018863231,0.027842432,1.4126301e-05,0.73163307,0.059880197
0.96194047,3.4570694e-06,0.0016956031,8.821487e-06,1.7881393e-07,0.005737722,0.003009379,0.0005375445,0.0003257692,0.08971608
3.3915043e-05,0.00033292174,0.0010466278,0.0024770796,0.00022038817,0.99975765,0.06652889,2.18153e-05,0.29115736,0.00052687526
0.0005207658,5.146861e-05,0.0006676614,0.00031161308,0.0006836355,0.0032631457,0.007948726,2.8252602e-05,0.999259,0.00052422285
1.5765429e-05,0.96509445,0.09808466,0.25157785,0.0024752915,0.059624463,0.024393171,4.3213367e-06,0.47091645,0.012676269
8.940697e-07,0.015952647,0.0100774765,0.2876848,0.017656893,0.9944477,0.026874006,4.4375658e-05,0.0044289827,0.022117347
4.23491e-05,5.9604645e-08,0.00016632676,1.7881393e-07,1.4901161e-07,0.00036722422,0.0003723204,0.08455023,0.0055141747,0.94632435
0.22179216,2.05338e-05,0.0011245608,0.7890793,0.0010658801,0.0061501563,0.0060862303,0.00049862266,0.1723524,0.007564485
0.0014657676,8.940697e-08,2.1278858e-05,1.2308359e-05,1.1444092e-05,0.0007160008,0.010819137,0.0029608905,0.99867976,4.6670437e-05
0.0056546032,1.7046928e-05,0.0005761683,0.00062435865,9.4890594e-05,0.0018506348,0.013214171,0.00027996302,0.99666476,0.00095531344
4.1127205e-06,9.23872e-07,0.00011691451,0.99999535,0.0005097687,0.0089253485,0.008282542,8.940697e-08,0.00030007958,2.2053719e-06
1.9073486e-06,1.1920929e-07,0.0007261634,5.364418e-06,4.8279762e-05,0.9998536,0.009531647,0.00015464425,0.12135884,0.000513047
0.0019812584,0.000451535,0.9900784,0.0006893873,0.00062534213,0.0014707446,0.0010469854,2.8282404e-05,0.5115245,0.003394395
0.800017,2.977252e-05,0.0013766289,0.00014841557,1.6212463e-05,0.0020948052,0.0020632744,0.00068208575,0.062262505,0.04988709
0.0,0.0076115727,2.6524067e-06,1.0550022e-05,2.1904707e-05,0.007653147,0.99770033,1.0967255e-05,0.0018807054,0.0007484257
0.99751484,2.0861626e-07,0.00023192167,2.7060509e-05,1.5199184e-06,0.011344433,0.002485931,0.00018122792,0.0012485981,0.0018514991
3.7044287e-05,1.3113022e-06,0.00017741323,0.99993026,4.2051077e-05,0.012389332,0.017988414,8.6426735e-07,0.0053255856,3.2782555e-06
4.10676e-05,2.0861626e-07,9.387732e-06,3.427267e-06,0.0,0.007542759,0.9974501,0.00013694167,0.004219651,0.021190733
0.00035190582,4.172325e-07,3.629923e-05,0.00010481477,0.00014013052,0.0011579692,0.004378617,8.481741e-05,0.9997706,7.587671e-05
0.074252605,0.00010821223,0.00022852421,0.00037422776,2.3126602e-05,0.0060611665,0.007976949,8.377433e-05,0.8754458,0.060828865
3.311038e-05,0.5655001,0.06600398,0.973512,0.0016040802,0.011772096,0.034427255,2.503395e-06,0.88135386,0.0070922673
0.9970033,1.7881393e-07,0.00010073185,2.9742718e-05,3.516674e-06,0.008808494,0.0022988617,0.0006490648,0.00044301152,0.0026771426
0.9951068,0.0,0.00039875507,3.7640333e-05,9.030104e-06,0.0027404726,0.000590235,0.0026177168,0.00299564,0.00038850307
0.95394206,8.34465e-07,0.00020757318,4.8279762e-05,6.67572e-06,0.0049550235,0.0044537783,0.0003619194,0.016113728,0.023976594
0.049289584,3.2484531e-06,8.004904e-05,2.7120113e-05,0.0001603663,0.001269728,0.0034974813,0.00019994378,0.9611076,0.011581421
0.65078676,1.8388033e-05,0.002260834,0.00048160553,0.0002810955,0.0123826265,0.0086790025,0.0005386472,0.6459114,0.0027795732
0.0012879074,1.4901161e-07,0.00018852949,9.801984e-05,0.00013276935,0.0028027892,0.0071047843,0.9986583,0.0040544868,0.00087070465
0.99273145,3.874302e-07,0.0003142357,0.00020942092,1.4543533e-05,0.012748063,0.003521502,0.0001924932,0.0020512044,0.0032995045
3.5762787e-06,0.0069998503,0.8539412,0.23988453,0.009170383,0.98707545,0.011993647,0.00017392635,0.2956428,0.0016028881
0.4604998,1.1920929e-06,0.00025257468,0.00016632676,5.337596e-05,0.0027901828,0.0035567582,0.004459381,0.7737149,0.0018895566
0.20813796,0.0001475811,0.0054849386,0.00048026443,6.568432e-05,0.0028460026,0.011335731,0.0007171631,0.15953115,0.24483594
0.01343441,4.172325e-06,0.0012145042,0.0008392334,0.0065187514,0.002480805,0.004360318,0.00013700128,0.97948813,0.0038462877
0.0023739934,6.347895e-05,0.00020721555,0.00078961253,0.0002168715,0.006212294,0.01258707,0.0002425909,0.997592,0.0019876063
0.025612622,0.00031980872,0.0010338128,0.025111586,0.000369668,0.021676779,0.4498424,2.1249056e-05,0.00024104118,0.0067916214
0.11570826,1.5556812e-05,0.00012761354,6.839633e-05,1.1026859e-06,0.0041576326,0.008743197,0.00086319447,0.9444922,0.024342537
0.9526138,5.4240227e-06,0.00017395616,0.00011256337,8.5532665e-06,0.0073537827,0.006225735,0.00022986531,0.0018312335,0.13772032
0.9892185,4.172325e-07,0.00018534064,0.0001578033,7.95722e-06,0.003658384,0.0017722547,0.0008302331,0.00043603778,0.035745025
0.0051576793,0.0,7.6293945e-06,3.6358833e-05,6.4074993e-06,0.0009289682,0.0023202598,0.9989153,0.00014552474,0.0008163154
0.013541251,1.5467405e-05,0.0009964406,0.0010565817,3.33488e-05,0.9947519,0.0016076863,9.000301e-06,0.00025576353,0.0059027374
0.015068233,8.940697e-08,6.246567e-05,1.40964985e-05,1.0460615e-05,0.0042393506,0.00732103,0.0041893125,0.965312,0.000746876
0.023309022,0.00014859438,0.0073100924,0.00025749207,0.00014665723,0.0022116005,0.005328834,3.6984682e-05,0.9698651,0.024086565
0.0005507171,0.00014218688,0.9554036,0.00036931038,0.00010201335,0.0058068335,0.015912533,0.0001501739,0.9549041,0.0015045106
1.642108e-05,0.002079904,0.0005889535,0.9982364,0.00016272068,0.029827118,0.13838726,8.34465e-07,0.39133424,0.00021079183
0.00012165308,6.446242e-05,0.008435935,0.0004401803,9.23872e-07,0.00046026707,0.0037164986,0.0014308691,0.00010690093,0.9932543
0.11154434,0.00031754375,0.0070806444,0.0003503859,4.553795e-05,0.0036298335,0.009334654,6.7055225e-05,0.3268941,0.37340707
0.008207679,2.2649765e-06,0.0003272891,8.273125e-05,5.1110983e-05,0.021769583,0.035384715,0.0010368228,0.073584676,0.15317997
0.9841968,1.1920929e-06,0.0017905533,9.9390745e-05,3.632903e-05,0.00279665,0.0043284297,0.0040986836,0.00037774444,0.03797528
0.9883307,1.4901161e-07,0.00013828278,3.5256147e-05,1.6242266e-05,0.0039986074,0.0018417239,0.0022853315,0.0023607314,0.007604867
3.799796e-05,0.9695449,0.0008903146,0.0013329983,9.506941e-05,0.018722355,0.028154522,7.6413155e-05,0.4005357,0.0006093383
0.0015633404,6.0796738e-06,0.0002079606,1.6868114e-05,2.8908253e-06,0.0028381646,0.010583162,0.000125736,0.17651775,0.91734314
1.2427568e-05,3.993511e-06,0.99861884,0.001958251,0.024526715,0.007996947,0.0031445026,0.0004988909,0.9830067,1.180172e-05
0.90452474,2.2411346e-05,0.26037818,0.00010403991,4.7266483e-05,0.012592912,0.0037467182,0.027768701,0.008913755,0.0056530237
0.00014358759,0.05732277,0.030120641,0.8804489,0.00015002489,0.0048906505,0.013354182,6.3180923e-06,0.76041514,0.08969432
1.1920929e-07,0.9939058,0.0027345717,0.00010550022,0.002987802,0.106904835,0.0015850961,0.00014537573,0.4983347,0.00035259128
0.0011930466,1.9967556e-06,3.71933e-05,0.00026661158,0.00013530254,0.0015542209,0.013763607,0.00018548965,0.99883723,0.00022169948
0.00020697713,1.579523e-05,0.99952143,0.0019908547,0.00024586916,0.0065635443,0.0020499825,0.00044053793,0.90046954,1.7672777e-05
0.28416646,5.066395e-07,1.1652708e-05,0.00011226535,4.1127205e-06,0.008776665,0.0024304092,0.040355593,0.70556444,0.0016083121
0.37887195,5.662441e-07,0.00015449524,3.3974648e-06,4.4703484e-07,0.0009481013,0.0027593076,0.36279762,0.013327807,0.07313973
0.970509,0.0,5.6028366e-05,1.9103289e-05,0.0,0.00029575825,0.0005148053,0.22490788,1.6093254e-06,0.00013801455
0.0,3.784895e-06,9.906292e-05,0.00024312735,8.606911e-05,1.0,0.002249211,3.0994415e-06,0.9809402,4.7683716e-07
0.7350924,2.0861626e-07,0.00038725138,1.0341406e-05,6.2286854e-06,0.0038095415,0.0031346977,0.0016411245,0.6407572,0.001177609
0.0056465864,0.0,1.3500452e-05,4.735589e-05,4.374981e-05,0.0006479919,0.0024027228,0.0095478,0.9926702,0.0004439652
0.18444458,1.0311604e-05,0.00023287535,6.0796738e-05,2.8342009e-05,0.0064907074,0.01041007,0.0016379952,0.83313227,0.07389289
0.0,4.8458576e-05,0.0003593564,0.0006611049,6.2823296e-05,1.0,0.00012025237,3.3080578e-06,0.7906891,1.758337e-06
0.0,0.006530434,0.00066816807,0.13626105,0.010521203,0.9605427,0.029945046,1.847744e-06,0.0012054741,0.013684839
0.7283015,2.0712614e-05,0.0031692982,0.00021585822,6.2286854e-06,0.0021376312,0.0033455193,0.01105842,0.0013498366,0.5016235
7.8231096e-05,0.0,0.00017482042,5.3793192e-05,2.0861626e-06,0.0010748208,0.0021604002,0.9996309,0.00034302473,0.005686313
0.0,0.0,7.8082085e-06,4.8458576e-05,0.99983114,3.46303e-05,0.00040909648,2.9802322e-07,0.71782434,6.508827e-05
0.0,0.0014376938,0.036208957,0.00016582012,0.00090789795,0.9185046,0.9122018,0.00038683414,0.017794073,0.0006349981
0.9968167,0.0,0.00017935038,1.6838312e-05,4.5895576e-06,0.0045291185,0.00026506186,0.00028842688,0.002777189,0.0007010102
0.00034672022,8.34465e-07,0.00019201636,0.9999039,0.0001578331,0.024905443,0.0047696233,1.2934208e-05,0.0046076775,9.119511e-06
0.002736777,2.7000904e-05,0.1416362,0.0013558567,0.019042939,0.003836006,0.0063563585,0.0018643141,0.9453412,0.005773574
0.040393025,2.7239323e-05,0.8120065,0.0007915795,0.010548949,0.0054190755,0.006880522,0.024221659,0.417895,0.0075508356
0.0005504489,0.00026527047,8.752942e-05,4.568696e-05,3.5762787e-07,0.015038669,0.9936608,0.0010074079,0.016227692,0.002718687
0.9275136,2.9802322e-07,0.0003811717,1.13248825e-05,9.119511e-06,0.0032412708,0.0020351708,0.00043469667,0.12907025,0.00882718
3.5762787e-07,0.0005249381,0.0015256405,0.003222853,0.00019904971,0.8476064,0.95321184,0.00012716651,0.028327614,0.0021787286
1.2218952e-06,2.0325184e-05,2.3305416e-05,0.0008921623,7.95722e-06,0.9917817,0.92585874,1.4483929e-05,0.003706038,0.00021708012
0.9923302,1.4901161e-07,8.8483095e-05,0.00022041798,4.9561262e-05,0.019121915,0.0033681989,0.0009352863,0.00088486075,0.0035072565
0.15136138,0.00015583634,0.00032761693,0.00031509995,5.6028366e-06,0.005752504,0.01625356,0.00021886826,0.023521721,0.7503357
0.00037154555,0.0021397173,0.0016483068,0.0056316257,5.2839518e-05,0.9808845,0.029998153,2.1219254e-05,0.17749563,0.11408594
0.9815967,2.9802322e-08,0.00014081597,4.082918e-06,1.1324883e-06,0.0038825274,0.0019963384,0.04508269,0.0012307465,0.0028453767
0.0,0.0,0.99982107,0.9985912,0.0016629696,0.010582477,0.00092986226,5.662441e-07,0.10890493,3.5762787e-07
0.2680525,2.771616e-06,0.0001039207,5.3077936e-05,3.5971403e-05,0.0059895813,0.00822103,0.0007226765,0.8466135,0.012598813
0.5635227,2.9802322e-08,0.00015175343,5.4627657e-05,2.0861626e-07,0.0029261112,0.0028154552,0.8753854,0.000120311975,0.001229316
0.0027390122,0.0,3.8564205e-05,1.0609627e-05,4.23193e-06,0.0020056367,0.0045614243,0.98429894,0.00041395426,0.03847778
0.39020514,3.2186508e-06,0.0003027022,7.033348e-05,9.387732e-06,0.0015260875,0.0033459067,4.592538e-05,0.64623237,0.03277552
0.86922646,1.0877848e-05,0.0010157824,3.5077333e-05,5.453825e-06,0.009688288,0.0029355586,0.0025539696,0.0028679967,0.12139651
0.00044363737,1.0281801e-05,3.1083822e-05,9.509921e-05,5.429983e-05,0.0042537153,0.0018922389,8.940697e-08,0.008752704,0.9811833
0.0011931658,3.695488e-06,0.0004722476,0.014494091,0.9957989,0.0023899674,0.0035826266,7.748604e-07,0.03269592,0.0076925755
0.9902097,1.8775463e-06,0.0015144646,3.6597252e-05,8.6426735e-07,0.0044962466,0.002760291,0.0020314753,0.00010046363,0.025400072
0.00066655874,0.024148315,0.05831036,0.0036699772,5.0842762e-05,0.014149189,0.3808047,7.599592e-06,0.5775315,0.0150928795
0.9782398,1.7881393e-07,0.00013175607,7.516146e-05,2.5510788e-05,0.007066548,0.0018766224,0.000541687,0.14656082,0.00041016936
0.0050965548,3.1918287e-05,0.000102728605,0.00044745207,0.00012075901,0.0030210912,0.0092924535,5.5730343e-06,0.9721223,0.008372664
1.4901161e-07,0.98067576,0.000980705,0.9942659,0.0003617108,0.022481084,0.029424101,3.5762787e-07,0.937055,8.9883804e-05
0.99727,2.9802322e-08,7.2181225e-05,2.18153e-05,5.4836273e-06,0.010119051,0.0006198883,0.001696527,0.0013940632,0.0008714795
0.14201495,1.4007092e-06,0.0006493628,5.0365925e-06,2.0861626e-07,0.0018252134,0.0012763441,0.0031316876,1.2904406e-05,0.7434845
0.9911977,0.0,7.736683e-05,5.90086e-06,1.4901161e-06,0.0046806037,0.0023682714,0.011635661,0.00046381354,0.00013074279
0.9377117,3.0696392e-06,0.00030201674,0.00010821223,9.000301e-06,0.014338285,0.0074331164,0.00086188316,0.058770925,0.055523574
0.30210698,7.4505806e-06,0.00033834577,0.00037786365,8.922815e-05,0.0104599595,0.0046291947,5.3793192e-05,0.5948483,0.005099952
0.98007905,2.9802322e-08,0.00092580914,3.2365322e-05,7.8082085e-06,0.011327356,0.0022842884,0.003539592,0.0007596612,0.0017973483
0.9940828,1.1920929e-07,3.5732985e-05,1.7344952e-05,1.1026859e-06,0.016051948,0.0028287172,0.0009961426,0.0028242767,0.001891762
0.0023740828,0.0030555725,0.0007092953,0.0019533932,2.0861626e-06,0.0012869537,0.01923287,1.013279e-06,0.049303293,0.9752809
0.00011861324,3.1858683e-05,1.5228987e-05,0.00010871887,2.9802322e-08,6.4074993e-06,0.00011947751,2.682209e-07,0.0010055602,0.99987787
0.0,0.99989146,0.00038003922,0.8337202,0.0044530034,0.0067869723,0.0007163286,3.5732985e-05,0.0073931813,3.606081e-06
1.8179417e-06,0.99832475,0.044549823,0.0002465248,0.001054734,0.034480512,0.0015884936,7.626414e-05,0.09441325,0.00041386485
4.7922134e-05,1.1026859e-06,0.009485364,0.0004886091,0.99818945,0.0012715459,0.00172171,0.0004605353,0.6152181,5.3077936e-05
0.9978566,1.7881393e-07,0.00021988153,1.5616417e-05,1.0430813e-06,0.0055197477,0.0013192892,0.0052299798,0.00016105175,0.0010300875
0.00014278293,5.2124262e-05,0.00018307567,0.0001321435,2.7179718e-05,0.0031669736,0.50926083,0.000100791454,0.9872397,0.00047758222
0.9910419,0.0,0.00033390522,5.8352947e-05,2.8014183e-06,0.007050127,0.00926137,0.0009191632,0.0010415912,0.0015940666
1.296401e-05,0.0,0.00056535006,0.99995923,0.0010175109,0.0003707409,0.00027650595,5.00679e-06,1.9997358e-05,4.827976e-06
2.5123358e-05,4.2945147e-05,0.93365973,0.0020822883,0.1233879,0.008400887,0.013143271,4.9710274e-05,0.99059963,0.00015968084
0.0025095642,0.0001513362,0.010268122,0.0020300448,0.000105172396,0.00032168627,0.0033557117,0.0015842617,7.122755e-05,0.94777465
0.00011861324,3.1858683e-05,1.5228987e-05,0.00010871887,2.9802322e-08,6.4074993e-06,0.00011947751,2.682209e-07,0.0010055602,0.99987787
2.1100044e-05,5.9604645e-08,4.8547983e-05,0.99983054,3.1590462e-06,0.0027555823,0.005884111,1.7344952e-05,8.353591e-05,6.0796738e-06
0.9900086,3.2782555e-07,0.00018805265,3.1113625e-05,9.536743e-06,0.0073667467,0.0014635026,0.01862964,0.0005581081,0.005702883
0.05973056,1.4901161e-06,0.00018286705,0.00020685792,8.7976456e-05,0.0055297017,0.009359777,0.0035542548,0.98473215,0.00020489097
0.9975093,0.0,9.173155e-05,1.3411045e-06,5.9604645e-08,0.001568228,0.00054991245,0.00031384826,3.7163496e-05,0.00014784932
0.9962417,8.940697e-08,9.6559525e-05,1.30832195e-05,3.9339066e-06,0.015745431,0.0031127632,0.00023922324,0.00041660666,0.0012957752
0.00030717254,2.5451183e-05,9.7960234e-05,4.3570995e-05,3.5762787e-07,0.005365342,0.9991323,5.9336424e-05,0.004754305,2.0861626e-05
0.019543707,3.1232834e-05,0.00050905347,0.119210064,0.100703984,0.006619692,0.010412514,0.0002412498,0.43116766,0.020263553
0.012378544,3.0100346e-06,6.0886145e-05,4.4435263e-05,6.9737434e-06,0.004917532,0.06166312,9.2417e-05,0.93346995,0.0016158521
0.992398,2.9802322e-08,6.234646e-05,1.4275312e-05,6.2584877e-07,0.0057153404,0.0018084943,0.02326098,0.00012898445,0.0030628443
1.1622906e-06,0.0057943463,0.44494882,0.99884635,0.00035703182,0.064700186,0.0070298314,8.940697e-08,0.48905286,2.2649765e-06
0.0,0.0012206733,0.00024291873,0.9998896,0.00014644861,0.030562043,0.9301138,0.0,0.99744904,3.5762787e-07
3.1292439e-06,0.00011768937,0.9680356,0.9998265,0.0014244914,0.0050341487,0.002405554,1.2814999e-06,0.0057379007,1.0609627e-05
0.93632734,4.082918e-06,0.009446263,3.0308962e-05,2.5987625e-05,0.004189968,0.003118813,0.0024921894,0.052144527,0.009713054
0.020459205,6.556511e-06,2.18153e-05,0.0002438426,3.3676624e-05,0.0055062473,0.003725946,0.00013133883,0.98461354,0.0072036684
0.06323102,0.00014859438,0.00066787004,0.00033029914,4.476309e-05,0.0059013367,0.005505204,0.00010743737,0.89757884,0.07454494
0.027160615,6.2584877e-07,0.00015246868,0.0001629591,3.8802624e-05,0.002646923,0.0055922866,0.0008395612,0.9913014,0.0010338128
0.9935777,7.1525574e-07,0.0001271069,7.978082e-05,6.5267086e-06,0.00669989,0.004657656,0.00028550625,0.00033164024,0.0073381364
0.0,0.00935179,0.001765579,0.9998517,3.5345554e-05,0.119963884,0.16198924,0.0,0.98720324,9.536743e-07
2.0861626e-07,0.023118973,0.6813016,0.00013923645,0.00073713064,0.013079703,0.88495827,5.9962273e-05,0.9906139,2.8640032e-05
0.36919716,2.3841858e-07,1.809001e-05,0.00016486645,4.014373e-05,0.004387796,0.0039863884,0.000539124,0.8539363,0.0023668706
0.99050355,0.0,0.00013589859,1.6510487e-05,2.026558e-06,0.008541822,0.0011609197,0.0022748113,5.570054e-05,0.0024269223
0.0013165772,0.00024366379,0.002614081,0.9986006,0.0016489327,0.011462241,0.020900488,8.34465e-06,0.048254132,0.0003863871
4.1902065e-05,0.0004364848,0.45022798,0.9982636,0.03816724,0.019873261,0.0061690807,1.9460917e-05,0.0025065243,0.00018766522
6.2584877e-07,0.9994552,0.00020185113,6.374717e-05,1.3917685e-05,0.0040760934,0.001240313,0.00046280026,0.001018405,0.00012782216
0.006086856,0.0,0.001775533,2.5331974e-06,0.00014290214,0.00057157874,0.001110971,2.682209e-05,0.99413574,6.3180923e-06
1.0728836e-06,0.009314626,4.4733286e-05,0.0016290843,1.1444092e-05,0.01104033,0.97950274,2.348423e-05,0.08479375,0.059036165
0.002832383,0.8579589,0.009920776,0.000115305185,2.7120113e-06,0.03603655,0.0036606789,0.00023588538,0.0062682033,0.009220481
0.9944297,1.1920929e-07,0.00011649728,1.6570091e-05,6.0796738e-06,0.0065538883,0.0029469728,0.0002616644,0.005015075,0.0009364784
0.00011861324,3.1858683e-05,1.5228987e-05,0.00010871887,2.9802322e-08,6.4074993e-06,0.00011947751,2.682209e-07,0.0010055602,0.99987787
0.019859463,2.4735928e-06,0.00021249056,2.6196241e-05,3.5762787e-07,0.0032365024,0.0017654002,0.00020453334,0.013160348,0.9781324
0.0033283234,1.5497208e-06,9.009242e-05,3.8802624e-05,6.1690807e-06,0.0065488815,0.007178992,0.00014591217,0.99397624,0.0006879568
0.00067973137,0.00017952919,0.0023855865,5.480647e-05,0.00083750486,0.0018284619,0.009237826,7.009506e-05,0.0012764931,0.9815128
0.998932,0.0,8.910894e-06,5.3942204e-06,1.6391277e-06,0.012822509,0.00043174624,0.00022417307,0.0005464852,4.1246414e-05
0.998037,1.7881393e-07,0.00054094195,3.8415194e-05,2.0563602e-06,0.0031960309,0.0014640987,0.00059205294,4.634261e-05,0.0013985932
0.019672781,1.5288591e-05,4.273653e-05,1.9133091e-05,4.9471855e-06,0.0030051172,0.015838057,0.00039035082,0.9833888,0.023311585
0.00032275915,0.999076,0.002013296,0.0034806132,3.7044287e-05,0.028590828,0.0020250678,0.00015559793,0.11707428,0.014482141
0.0023453832,0.00035992265,0.0015617311,7.7575445e-05,6.6161156e-06,0.0053211153,0.016603678,0.00029200315,0.9766005,0.0023905039
0.0,0.23496726,0.0009405017,0.030368358,0.004938096,0.99861294,0.21926773,5.066395e-07,0.7364154,2.115965e-06
0.00012990832,0.00034090877,0.005347103,0.00023630261,1.2785196e-05,0.80656093,0.15147468,6.7174435e-05,0.03796503,0.068006754
0.021483988,1.1205673e-05,0.00022637844,0.00014173985,0.00031375885,0.0038574636,0.007722348,7.176399e-05,0.99150735,0.0037969947
0.8760332,1.4424324e-05,0.023214847,3.4064054e-05,3.0696392e-06,0.002474904,0.0009248853,0.00091156363,0.0015286505,0.08763012
0.2811092,2.232194e-05,0.95756805,0.0007557273,6.735325e-06,0.0060308576,0.0044119954,0.0028697848,0.0012852252,0.00415197
0.77717924,2.9802322e-06,0.0007292628,0.000826776,0.00015345216,0.0223113,0.038355023,9.524822e-05,0.04613602,0.002685815
0.35674506,1.013279e-06,5.787611e-05,0.0029322803,4.2527914e-05,0.011101037,0.0026278198,0.0005930066,0.5835989,0.00061035156
8.1032515e-05,0.9465505,0.046816945,0.044116348,0.00035133958,0.007095903,0.008457124,4.014373e-05,0.5531869,0.02140683
6.0379505e-05,0.0,2.3841858e-06,0.9999962,3.9994717e-05,0.00081291795,0.0009056926,3.5762787e-07,2.9802322e-07,2.9802322e-08
2.1189451e-05,0.03460732,0.062576264,0.2676441,0.041505724,0.004134357,0.008823454,1.5497208e-06,0.982262,0.0025207102
0.9970833,0.0,0.0005630553,3.6597252e-05,1.0192394e-05,0.0071440935,0.0014466345,0.00028392673,0.0001577735,0.00048479438
0.014227092,1.3530254e-05,0.00020423532,7.966161e-05,3.0696392e-06,0.9900377,0.017589092,0.00031620264,0.008710116,0.036003888
0.9887701,1.5497208e-06,0.00039032102,0.00048425794,1.218915e-05,0.00723356,0.0100616515,0.002223879,0.00075280666,0.014391929
1.9967556e-06,4.5090914e-05,0.0002619624,0.00042766333,0.00014415383,0.99952817,0.023967266,9.086728e-05,0.98379815,4.3064356e-05
0.00052791834,4.172325e-07,3.3974648e-05,0.99964195,0.00042557716,0.007908374,0.0025458932,1.4066696e-05,0.0017142296,3.2126904e-05
1.847744e-06,0.9719935,0.016483486,0.9950006,0.00044170022,0.0136576,0.017511427,1.6093254e-06,0.7896273,0.0005092025
0.00095418096,6.774068e-05,0.002425611,0.0003643334,1.5884638e-05,0.99998367,0.01887849,0.00014543533,0.0060167313,0.0005981922
0.045592934,5.9604645e-08,0.00015679002,0.00017502904,0.00030636787,0.0015492141,0.0026465952,0.0017169118,0.980958,6.070733e-05
0.04501459,1.1920929e-07,6.7055225e-06,5.8323145e-05,5.0336123e-05,0.00044199824,0.00115183,0.00015491247,0.98873055,0.00019362569
0.51284534,8.940697e-08,3.6656857e-05,0.00015333295,0.0037215054,0.003109485,0.0056616664,0.0006222427,0.3590873,0.0009933114
0.031219274,0.00048816204,0.29889387,0.0015224814,0.000103503466,0.002379924,0.0046240687,0.00043174624,0.9883467,0.006105244
0.2189118,1.9073486e-06,0.00026109815,3.0875206e-05,1.013279e-06,0.077833414,0.02734974,0.0010323822,0.0006760359,0.013403118
0.97303593,5.9604645e-08,0.00015819073,3.0428171e-05,9.4771385e-06,0.013887793,0.004114777,0.009840667,0.00040397048,0.0021516383
0.009925067,0.0004606247,0.001529783,9.357929e-05,1.54078e-05,0.016138554,0.2393868,0.25084534,0.00453645,0.11317858
0.9932796,4.172325e-07,0.0001526177,0.00018808246,3.2782555e-06,0.0030909479,0.0020016134,0.00033164024,0.00073081255,0.009794116
0.0029914975,0.00044584274,0.083556235,0.000497967,0.00026610494,0.0048621893,0.005426049,0.00033974648,0.99366057,0.00082212687
1.2695789e-05,0.99627364,0.004321605,0.030869365,0.0002654493,0.023528665,0.02226922,2.682209e-06,0.89563674,0.0033750236
0.0,5.6773424e-05,0.99278975,0.9995918,0.89675057,0.00753209,0.0025588274,8.940697e-08,0.000109136105,1.6391277e-06
0.0,0.9999176,0.00030770898,1.6599894e-05,0.00020086765,0.0076898336,0.00034591556,9.715557e-06,0.065172076,0.00029319525
0.989277,0.0,3.6805868e-05,7.3969364e-05,7.2717667e-06,0.019152194,0.002527684,0.0006894767,0.0155527,0.0015463829
0.005923748,0.013884157,0.0037505925,0.0004476905,6.824732e-06,0.003895998,0.0065767765,4.1753054e-05,0.9354212,0.35530508
0.011759251,1.2516975e-06,0.00018465519,0.000101953745,0.0001924634,0.0035334527,0.0036371648,1.2218952e-05,0.98460174,8.037686e-05
