0,1,2,3,4,5,6,7,8,9
0.9563432,1.3113022e-06,2.682209e-07,1.2218952e-05,4.529953e-06,1.8000603e-05,0.00062027574,9.834766e-07,0.0020799637,0.012273073
0.8074337,0.0,1.1622906e-06,5.3465366e-05,1.4901161e-07,0.00012391806,8.973479e-05,0.109975666,1.3440847e-05,8.401275e-05
0.00073355436,0.0002053082,0.001025945,0.06834653,0.45354974,0.8898499,0.04210025,1.6868114e-05,0.0005503595,0.0007199347
0.00095406175,0.00054743886,2.732873e-05,0.99186647,3.3974648e-05,0.001016438,0.72501564,1.0728836e-05,0.00035783648,0.010044336
0.00013068318,3.2782555e-07,2.3543835e-06,0.9988226,4.172325e-07,7.095933e-05,0.0045800507,2.0861626e-07,0.002637893,0.00010681152
0.9938518,0.0,3.5762787e-07,1.31726265e-05,5.9604645e-08,9.396672e-05,0.00024595857,0.0002566874,1.0550022e-05,1.8060207e-05
0.023635864,1.6093254e-06,7.4505806e-07,1.3053417e-05,5.364418e-07,3.4928322e-05,0.0015435219,7.7188015e-06,0.95593685,0.013935208
1.859665e-05,6.854534e-07,0.00012564659,0.9993886,0.9379844,8.556247e-05,0.03321302,6.28829e-06,0.0019905865,1.3440847e-05
0.00011232495,4.3809414e-06,5.7965517e-05,0.0032043457,0.00031137466,0.00018340349,0.0053394735,9.387732e-06,0.9958879,0.00018659234
0.00049874187,0.0019125938,4.9740076e-05,0.00011101365,1.4007092e-06,0.016208261,0.94255096,1.3321638e-05,0.009432137,0.00012511015
0.0014354885,0.002206862,0.7854326,0.00026479363,0.00040611625,0.0006439984,0.0006918311,0.027809411,0.8808603,0.0030458868
0.003017366,0.0,1.7642975e-05,8.34465e-07,2.0861626e-07,3.093481e-05,0.0003439784,0.00044301152,0.9882747,8.943677e-05
0.00048410892,0.7875792,0.0053603053,0.92292655,5.5760145e-05,0.0019671023,0.3404434,1.1622906e-06,0.74138725,0.034081638
0.006650567,0.29206222,0.097316384,7.867813e-06,0.0031702816,0.0003886819,0.00065636635,4.5597553e-06,0.010619879,0.6971139
0.088374585,0.0,1.1593103e-05,3.7550926e-06,5.9604645e-08,3.451109e-05,0.0024071336,0.00041869283,0.96198106,1.4513731e-05
0.0005507469,0.6836845,0.0014474392,0.00072196126,2.2053719e-06,0.0007021427,0.016736418,9.834766e-07,0.9081553,0.024629772
1.13248825e-05,1.7881393e-07,7.516146e-05,0.99957234,7.238984e-05,1.013279e-06,0.0077329576,3.5762787e-07,0.119452775,6.2286854e-06
0.98023844,4.172325e-07,5.9604645e-08,1.0073185e-05,1.0728836e-06,1.9073486e-05,0.00067064166,1.1622906e-06,0.00028014183,0.008890033
0.00017616153,0.09488496,0.11831972,0.0062114894,0.04170674,0.019057482,0.63304603,0.008611947,0.050924867,0.11357075
0.00023433566,5.8323145e-05,8.785725e-05,0.0012703836,0.0002488196,0.00072064996,0.7733598,0.0037596226,0.9273485,0.0019975007
0.98710257,0.0,2.3543835e-06,3.4928322e-05,1.013279e-06,0.00032886863,0.0004042983,0.00044840574,6.571412e-05,0.00032007694
0.061264217,0.0005838275,0.965433,0.016328305,0.0001412034,0.0025050044,0.0020149648,0.0026187897,0.009327263,0.0011345148
0.9965557,2.9802322e-08,1.4901161e-07,1.7762184e-05,0.0,8.627772e-05,0.00026130676,7.122755e-06,2.259016e-05,0.00029319525
0.026765496,0.0004093349,0.00019943714,0.0017880201,3.4034252e-05,0.0012075305,0.02278617,3.552437e-05,0.96848965,0.0034786165
0.034395337,3.9041042e-06,1.3232231e-05,0.00016194582,5.5760145e-05,0.00014075637,0.0048129857,3.0368567e-05,0.9421149,0.0017656088
0.0010828674,0.029785693,0.29790556,0.47054073,0.014438599,0.9596553,0.006448388,0.00800699,0.07907313,0.39755207
0.20556578,0.0060863495,0.001039803,0.0021597147,5.662441e-07,0.0035266578,0.28461376,0.004259497,0.0026483834,0.002737075
0.98687035,0.0,4.8577785e-06,1.22487545e-05,0.0,0.00021749735,0.00018751621,0.0039529204,4.029274e-05,0.00036805868
0.16870993,0.0,2.8699636e-05,2.1904707e-05,3.8146973e-06,4.3570995e-05,0.000320971,0.9094836,0.005801797,0.00010180473
4.222989e-05,0.8834317,0.004089713,0.0090307,2.5331974e-06,0.0001295507,0.0031249225,0.0,0.9491152,0.037148476
0.0015135407,0.005334139,1.6063452e-05,0.001593262,1.4901161e-07,0.0010057092,0.9804046,3.516674e-05,0.030780733,0.00042763352
0.00010430813,0.009475708,0.00012061,0.0005951822,3.1590462e-06,0.0034303665,0.97957695,0.0001282394,0.109135,0.0007711351
0.036157757,0.0006199479,6.5267086e-06,0.00046774745,3.874302e-07,0.0007391572,0.93202674,4.1127205e-06,0.0002014935,0.00018441677
0.0002965629,2.9802322e-08,3.3199787e-05,0.9939971,7.843971e-05,2.6732683e-05,0.010099769,0.000111848116,4.0858984e-05,0.00049471855
0.2289299,6.854534e-07,9.417534e-06,3.132224e-05,3.963709e-06,5.2124262e-05,0.0029454827,4.1872263e-05,0.8120347,0.00073483586
0.99357843,5.9604645e-08,2.0861626e-07,6.8843365e-06,1.1920929e-07,8.97944e-05,0.0003581643,3.5762787e-06,0.00010275841,0.00071796775
0.82897115,2.2649765e-06,1.3709068e-06,2.208352e-05,1.4901161e-07,3.606081e-05,0.0032200515,1.9669533e-06,0.27258638,0.0008121729
0.9935701,5.9604645e-08,1.1920929e-07,9.864569e-06,2.9802322e-08,2.2739172e-05,0.00021779537,1.3709068e-06,6.914139e-05,0.00078865886
0.9919119,1.7881393e-07,4.172325e-07,1.3113022e-05,2.3841858e-07,8.055568e-05,0.00040498376,5.00679e-06,0.0002465546,0.000682652
0.0012996793,1.0430813e-06,3.1858683e-05,0.0001013875,1.5795231e-06,9.569526e-05,0.0007754266,6.195903e-05,0.99348,0.0002603829
0.0004567206,0.0005790889,0.9787158,0.04589802,0.020632714,0.00037547946,0.001845181,0.007366866,0.809202,0.00034433603
0.895483,2.592802e-06,5.662441e-07,0.00017091632,2.9802322e-07,3.2514334e-05,0.004918903,2.9802322e-07,0.13399276,0.00024467707
4.1246414e-05,0.0004772246,0.0037000477,3.0994415e-05,5.5730343e-06,0.99080944,0.02671659,0.0005117357,0.07042202,0.00032290816
3.734231e-05,0.9381797,0.07543641,0.025835901,0.00035732985,0.018164843,0.033298552,3.9041042e-06,0.9494915,0.01874426
0.0004634261,8.672476e-06,9.724498e-05,8.574128e-05,7.209182e-05,0.00010457635,0.0024535954,0.000110924244,0.98823124,0.008881122
0.35374284,0.0,1.3232231e-05,1.2695789e-05,1.1026859e-06,3.4749508e-05,0.00016871095,0.84284675,0.0010885596,3.7163496e-05
0.07566103,1.8179417e-06,5.0753355e-05,3.0398369e-05,3.799796e-05,5.6117773e-05,0.0019050837,9.730458e-05,0.90932286,0.0017842948
0.0014089942,2.0742416e-05,0.0063749254,0.0010966063,0.0029286146,0.00017803907,0.0121130645,0.0009835362,0.98064303,0.00049868226
0.00017490983,0.9079045,0.06616762,0.0004721582,0.0005402863,0.0039355755,0.038548082,3.8444996e-06,0.5013159,0.054628193
0.9960588,0.0,0.0,3.8146973e-06,0.0,5.6028366e-06,0.0002155006,2.3841858e-07,1.5199184e-05,0.0007492006
0.00032743812,0.0127832,0.07956129,0.0003913343,3.0994415e-06,0.9947307,0.014940947,0.0011939406,0.00539732,0.0026430786
0.0016790628,0.900198,0.105127394,9.974837e-05,1.6003847e-05,0.0030906498,0.019512564,3.0994415e-06,0.071701646,0.03284952
7.045269e-05,0.006723076,0.021603793,0.023512572,0.0005578995,0.9980671,0.0086019635,0.0013666153,0.16987029,0.0019012094
0.03725952,0.0,8.493662e-06,1.9073486e-06,3.5762787e-07,3.1352043e-05,0.0009891689,0.0046554506,0.97474325,7.107854e-05
0.7982564,6.753206e-05,4.8577785e-06,6.2286854e-06,7.1823597e-06,2.527237e-05,0.0006929338,3.2484531e-06,0.047060996,0.12826562
8.761883e-05,0.96095407,0.024321407,0.0005686283,8.225441e-06,0.0013408661,0.022108138,4.172325e-07,0.5363683,0.026513487
0.7078641,4.172325e-06,4.172325e-07,1.013279e-06,0.0,2.8848648e-05,0.0007393956,6.8843365e-06,0.19564539,0.05048889
0.00017550588,0.8352716,0.081638575,0.0018008351,1.3887882e-05,0.0072802007,0.12921777,2.8669834e-05,0.03937751,0.031623602
0.9765881,1.1920929e-07,5.9604645e-07,0.00013947487,2.9802322e-07,7.894635e-05,0.001838088,6.854534e-06,0.0076022446,4.7802925e-05
0.00075259805,0.78569746,0.010045528,2.399087e-05,3.5762787e-06,0.000113368034,0.00480932,2.9802322e-07,0.05860862,0.31545755
0.99884874,0.0,0.0,7.1525574e-06,0.0,7.95722e-06,0.00019416213,6.2584877e-07,2.2351742e-06,5.197525e-05
8.371472e-05,0.000100284815,0.00041347742,3.71933e-05,1.8179417e-06,0.9930452,0.031005919,3.927946e-05,0.0757505,3.695488e-05
0.00014847517,0.00090381503,0.003608197,0.25036997,0.37075794,0.926299,0.041101694,4.902482e-05,0.0032899678,0.0018640459
0.0021377802,3.924966e-05,1.3113022e-06,5.9604645e-08,1.0728836e-06,0.0001296997,0.016136765,4.887581e-06,0.8152674,0.007824004
0.28833443,0.0002104342,3.2484531e-06,0.00015309453,1.7940998e-05,0.00018030405,0.034837335,6.28829e-06,0.6134904,0.03816104
0.99328923,0.0,7.748604e-07,1.1831522e-05,1.1920929e-07,0.00019168854,0.0002834499,7.775426e-05,5.7965517e-05,0.00041761994
0.9923084,0.0,2.0861626e-07,1.0251999e-05,1.1920929e-07,9.924173e-05,0.0002720654,9.1433525e-05,0.00010359287,2.977252e-05
0.00024726987,0.01620847,0.008928716,0.0018963814,0.009595007,0.0003825724,0.0018964112,3.620982e-05,0.93400407,0.16693923
0.0013267994,1.2218952e-06,0.014170408,3.1292439e-06,0.000103354454,7.69794e-05,0.0012422502,0.30467635,0.80356354,0.0051669776
0.06172183,0.0,9.834766e-07,3.5762787e-05,1.1920929e-07,2.4110079e-05,8.004904e-05,0.94135123,5.2452087e-06,8.5532665e-05
0.020919174,2.0861626e-07,8.34465e-07,0.00013136864,5.662441e-07,3.4302473e-05,0.0028372705,2.2053719e-06,0.97077215,0.0002476871
0.98396033,2.9802322e-08,4.4703484e-07,2.6375055e-05,5.9604645e-07,8.8214874e-05,0.0004940331,9.4771385e-06,0.0006662607,0.0002169609
0.0001283288,1.7881393e-07,1.5377998e-05,0.9990145,2.4735928e-06,8.016825e-06,0.0065125227,8.046627e-07,0.0030947626,6.8217516e-05
0.0021142662,5.9604645e-08,3.695488e-06,0.99036,1.4901161e-07,4.428625e-05,0.00852558,1.168251e-05,6.300211e-05,0.0010798275
2.3543835e-05,2.9802322e-08,1.1563301e-05,0.9988957,4.36306e-05,5.632639e-06,0.0045467913,1.4603138e-06,0.003953457,3.862381e-05
0.012746125,1.513958e-05,2.3901463e-05,2.7924776e-05,2.9623508e-05,0.0004902482,0.0073317587,0.00078102946,0.9403864,0.03820476
0.5576458,0.0,9.953976e-06,1.3500452e-05,5.662441e-07,5.5223703e-05,0.00014001131,0.705521,0.00020688772,3.33488e-05
0.95904845,3.2782555e-07,6.3478947e-06,2.6404858e-05,3.6358833e-06,0.00086194277,0.0015272796,0.0021837354,0.00028640032,0.0069510937
0.66995245,0.0,1.3321638e-05,1.7285347e-06,5.9604645e-08,3.8206577e-05,0.00200966,0.009758413,0.6517059,2.938509e-05
0.51187265,4.7683716e-07,0.0003491342,0.0063498914,3.5762787e-07,0.00018790364,0.001331836,0.019156456,0.21229777,0.0012577474
0.9868847,1.1920929e-07,1.0728836e-06,1.1920929e-05,6.854534e-07,0.00015583634,0.00037047267,5.6385994e-05,0.0003182888,0.001767844
0.004751563,5.9604645e-08,8.6426735e-07,3.1650066e-05,0.9984859,7.9870224e-05,0.015397131,1.9282103e-05,0.00033730268,0.0002373159
0.9924866,0.0,2.5331974e-06,1.8417835e-05,0.0,0.0001321733,0.00029957294,0.00052043796,0.00016093254,2.2828579e-05
0.9982958,0.0,2.9802322e-08,7.3611736e-06,0.0,2.604723e-05,0.00018131733,2.115965e-06,1.21593475e-05,4.9561262e-05
0.00050106645,6.467104e-06,0.0002400279,0.000385046,0.0030709207,0.00030636787,0.0044414103,9.6946955e-05,0.9902365,0.0005567372
0.99282056,0.0,1.2218952e-06,2.3901463e-05,2.3841858e-07,0.0002952516,0.00035053492,0.00022873282,2.1338463e-05,0.00028529763
4.9203634e-05,0.00035399199,0.0016013384,0.00010371208,0.0008559823,0.92135465,0.10973343,0.00032246113,0.94352543,0.00014817715
0.0003427267,4.9471855e-06,1.0341406e-05,0.0,1.013279e-05,9.23872e-07,2.9802322e-07,1.4901161e-07,0.0011622906,0.9979248
0.00012767315,2.9206276e-06,3.1232834e-05,0.99585557,4.2915344e-06,4.4852495e-05,0.010944158,2.7120113e-06,0.021564633,0.00077337027
0.00013843179,0.9238336,0.11754289,0.014704019,0.005472094,0.0037425458,0.032281905,2.5331974e-06,0.67527556,0.044009328
0.0076755285,1.1026859e-06,0.0005441308,0.00017598271,9.730458e-05,0.00010359287,0.003046304,0.0013684332,0.97971845,0.00079482794
0.9372872,8.940697e-08,3.5762787e-07,1.2814999e-06,1.4901161e-07,2.0384789e-05,0.0003463626,1.3589859e-05,0.036287487,0.0049366057
8.893013e-05,2.2947788e-06,6.2584877e-07,0.0,8.34465e-07,1.1920929e-07,0.0,0.0,0.0033387542,0.999089
0.90625536,0.0,5.841255e-06,2.6524067e-06,2.3841858e-07,5.6773424e-05,0.00041222572,0.11160621,0.013729036,0.00017547607
3.6418438e-05,0.054451674,0.09606916,0.030838996,0.00028532743,0.99772465,0.007741958,0.0014604628,0.16903117,0.008980185
0.5727202,2.3543835e-06,2.8908253e-06,0.00020933151,1.9967556e-06,3.0368567e-05,0.0015253127,2.413988e-06,0.42804384,0.0015572906
5.7429075e-05,0.042098373,0.8193437,0.0052703917,0.0016572475,0.0015443861,0.0022783875,0.00012975931,0.8991091,0.00083717704
0.49458224,0.0,2.0325184e-05,4.3988228e-05,4.8071146e-05,0.0014671981,0.001254797,0.64563096,0.00026130676,0.025923043
0.0025662482,0.13108176,0.00036227703,0.9954872,2.3454428e-05,0.00056400895,0.83737254,2.9206276e-06,0.035536915,0.013640672
0.00096949935,3.85046e-05,0.00020471215,4.172325e-07,4.6759844e-05,3.46601e-05,0.00047180057,0.002441913,0.018437505,0.89402306
0.95152926,0.0,1.31726265e-05,3.1650066e-05,8.6426735e-07,0.00014799833,0.0005528033,0.0022098422,0.004318416,0.00016880035
0.8462832,5.1259995e-06,1.04010105e-05,0.00034371018,6.2316656e-05,0.00014662743,0.0038005412,1.1861324e-05,0.08208418,0.0021852255
1.6063452e-05,2.7805567e-05,0.00091674924,0.00053426623,0.014398485,0.00028786063,0.006076336,1.21593475e-05,0.9938029,0.0002349019
0.03867808,0.0011266768,9.036064e-05,1.5825033e-05,0.0008830428,6.377697e-05,0.0009841621,6.8217516e-05,0.4235961,0.83166385
0.9968632,0.0,2.9802322e-08,9.387732e-06,8.940697e-08,2.6583672e-05,0.00017648935,3.3676624e-06,8.46386e-06,0.00026604533
0.00030902028,0.70641565,0.021155626,0.9763211,0.0004091859,0.0083914995,0.5021748,9.23872e-07,0.8256748,0.0028317273
0.00023406744,0.0012255609,0.013079315,0.0002708435,1.937151e-06,0.996644,0.0068181157,0.004469365,0.004686713,0.0035714805
6.791949e-05,0.003174603,0.56084627,0.96053517,0.005393803,0.00026509166,0.0083144605,2.297759e-05,0.93488955,0.00011733174
0.8129418,7.033348e-06,1.3411045e-06,3.2663345e-05,4.9471855e-06,2.7418137e-05,0.0015313029,3.784895e-06,0.10891697,0.020284742
5.7786703e-05,1.1920929e-07,3.5762787e-06,0.9997602,2.6524067e-06,3.993511e-06,0.003749013,1.4901161e-07,0.0007600486,6.1690807e-06
0.9807427,2.9802322e-08,2.8908253e-06,2.8192997e-05,7.748604e-07,0.00014925003,0.00048998,0.0002643466,0.0008343458,0.0003475845
0.00038194656,8.6426735e-07,2.2411346e-05,0.90452814,0.9945892,0.0006082952,0.045731366,1.257658e-05,0.004531026,7.352233e-05
0.00040990114,0.7670096,0.0028762817,0.08845177,7.212162e-06,0.00095152855,0.04700166,6.854534e-07,0.9389564,0.047654748
0.97533166,4.7683716e-07,1.4901161e-07,1.8894672e-05,1.3411045e-06,1.5497208e-05,0.00069755316,3.874302e-07,0.00050505996,0.004794657
1.8775463e-05,0.4061924,0.7488366,0.07678151,0.0014155507,0.00094902515,0.004417002,2.026558e-06,0.964494,0.00072196126
0.9394014,1.0430813e-05,3.2484531e-06,3.6656857e-06,4.976988e-06,3.835559e-05,0.00039693713,1.7285347e-06,0.0024126172,0.03279096
7.623434e-05,9.021163e-05,0.0007504523,0.0005004704,0.0030665994,0.8598402,0.07403085,0.0003336668,0.91747856,0.00044167042
2.4020672e-05,0.0021285713,0.03604245,0.010989964,0.0129475,0.9878932,0.049891233,8.8989735e-05,0.032590657,0.0009380579
0.0007403195,0.0004248619,0.0018124878,0.99575126,1.8179417e-05,0.0006288886,0.081882,1.7523766e-05,0.0025759041,0.0060656667
8.8363886e-05,0.0,5.364418e-07,2.861023e-06,1.7881393e-07,1.758337e-06,0.00025624037,0.9982421,8.8989735e-05,1.1652708e-05
0.8704825,9.834766e-06,2.82228e-05,4.3451786e-05,9.536743e-07,0.0005135238,0.003964454,8.34167e-05,0.1398828,0.0019365847
0.9913464,0.0,5.364418e-07,7.897615e-06,2.9802322e-08,0.0001308024,0.0003629923,1.1742115e-05,0.0003671646,0.00011596084
0.99679726,2.3841858e-07,2.9802322e-07,8.85129e-06,0.0,3.46601e-05,0.00022447109,5.364418e-07,0.00013411045,0.00029793382
0.09445685,1.7881393e-07,7.1525574e-07,6.994605e-05,1.2516975e-06,1.8417835e-05,0.0022583902,8.374453e-06,0.9285303,0.0006940365
0.31590873,0.0008600354,1.8894672e-05,9.280443e-05,3.0577183e-05,0.00010710955,0.0039725006,3.8146973e-06,0.41670883,0.06477183
7.674098e-05,4.172325e-07,1.3411045e-06,0.0,1.2814999e-06,5.9604645e-08,2.9802322e-08,2.9802322e-08,0.0005117953,0.9988929
0.0004246235,6.198883e-05,1.513958e-05,8.940697e-08,1.04010105e-05,9.23872e-07,1.1622906e-06,2.3841858e-07,0.016415358,0.99502575
0.001077205,0.29736984,0.14455178,0.005143672,0.01896435,0.0040091574,0.07025203,8.171797e-05,0.023990095,0.54972744
0.006421089,8.374453e-06,4.774332e-05,0.00043451786,4.0858984e-05,0.00028049946,0.008382738,1.6450882e-05,0.97881365,0.00035265088
0.87671715,1.3411045e-06,7.8082085e-06,9.423494e-05,1.4215708e-05,0.00013905764,0.0010761321,3.552437e-05,0.04078734,0.0031794906
6.1392784e-06,0.9774529,0.037856758,4.7326088e-05,1.0430813e-06,0.016102314,0.011810839,3.5762787e-07,0.5714049,0.004817456
0.022657543,0.00011762977,0.000117599964,0.0013142526,1.3828278e-05,0.0003940165,0.013292223,2.8759241e-05,0.94022894,0.0036670566
0.0030980408,0.0008057654,1.1771917e-05,0.00058496,1.9669533e-06,0.00071951747,0.96577966,1.1622906e-05,0.0072109103,0.0002835393
0.8346274,2.3245811e-06,4.7683716e-07,1.04904175e-05,1.1920929e-07,1.3381243e-05,0.0007930696,8.34465e-07,0.15544006,0.005072385
0.00033912063,0.85495865,0.0704329,0.9129176,0.0025087,0.0014416873,0.18244296,2.3841858e-07,0.08161953,0.021531403
3.9935112e-05,1.1920929e-07,0.0053397417,0.9339885,0.08043924,0.00025448203,0.003999442,0.0011030734,0.0036687553,0.000497967
0.09764704,0.00021916628,0.00032499433,0.30334118,0.012557447,0.00038582087,0.027686417,5.349517e-05,0.23742792,0.0075310767
0.16538164,0.0003926754,3.993511e-06,7.0631504e-06,8.940697e-07,8.931756e-05,0.0038761795,6.943941e-06,0.59468645,0.10160348
0.015175462,0.062929094,0.22005513,0.00018459558,4.3213367e-05,0.0015752614,0.0036005974,0.0007452667,0.7646355,0.0022545755
0.0039332807,8.940697e-08,7.6681376e-05,4.759431e-05,0.00025305152,0.00014668703,0.0020860434,0.0007608831,0.9936173,0.00017109513
0.009189367,4.142523e-06,0.00020840764,7.107854e-05,1.4305115e-06,0.00010970235,0.003297329,3.221631e-05,0.9772862,9.703636e-05
0.6076599,8.940697e-08,3.516674e-06,9.357929e-06,0.0,5.13196e-05,0.0013641715,6.0915947e-05,0.59763426,0.00016993284
0.9457793,6.2286854e-06,5.9604645e-07,8.583069e-06,3.2782555e-06,2.0325184e-05,0.0009685457,8.34465e-07,0.002707094,0.012821764
0.997528,0.0,0.0,4.9471855e-06,0.0,6.7949295e-06,0.00014677644,5.066395e-07,9.298325e-06,0.00026372075
0.0014576018,0.0,4.7683716e-07,0.998,2.1457672e-06,1.7106533e-05,0.011946559,2.026558e-06,1.886487e-05,0.00012287498
0.037293673,1.4007092e-06,1.2516975e-06,3.427267e-06,2.0861626e-07,6.771088e-05,0.0013344288,1.2606382e-05,0.948354,0.0067999363
0.9397006,0.0,5.632639e-06,6.467104e-06,9.834766e-07,0.00011178851,0.00048100948,0.0019949377,0.01638946,0.0010627508
0.99233496,2.9802322e-07,2.503395e-06,1.1146069e-05,5.662441e-07,0.0002450943,0.0003286898,2.2351742e-05,5.0246716e-05,0.001870513
0.051386774,2.3543835e-06,4.5329332e-05,5.504489e-05,1.731515e-05,0.00015109777,0.00434494,0.00023081899,0.93281734,0.0026847422
0.99142313,2.9802322e-08,0.0,1.6152859e-05,2.9802322e-08,1.2040138e-05,0.00031882524,3.5762787e-07,8.291006e-05,0.00032061338
0.35201445,5.915761e-05,2.3245811e-06,3.9964914e-05,1.2427568e-05,8.3088875e-05,0.0063444674,5.7816505e-06,0.52660197,0.06791395
0.0015919805,0.226684,0.026954323,1.1920929e-06,6.452203e-05,0.0001488626,0.0022032857,3.5762787e-06,0.003340125,0.7331549
0.014873713,0.0012797713,3.132224e-05,0.0022065043,4.172325e-07,0.0023034215,0.94440305,2.0772219e-05,0.0018217862,0.0002785027
0.00017365813,0.00632599,0.008078843,0.002969861,0.0014723837,0.9828613,0.09370369,0.00037541986,0.7100141,0.00032648444
0.0027709305,5.51939e-05,0.000119417906,0.006537497,1.9848347e-05,0.00041490793,0.028064877,3.1888485e-06,0.9863584,0.00023680925
0.54670423,3.889203e-05,5.5372715e-05,2.3841858e-07,0.0006259084,4.389882e-05,7.402897e-05,2.9563904e-05,0.0007466376,0.8158813
9.536743e-06,2.7120113e-06,0.005906433,0.00030246377,0.8499737,0.00069999695,0.022240281,0.0002194941,0.9971835,6.9737434e-06
0.0003348887,0.90215415,0.019767463,0.00076428056,1.2725592e-05,0.00061684847,0.003852725,2.682209e-07,0.5325307,0.1260773
0.00015741587,0.0,6.3478947e-06,0.9974842,0.0003964305,1.5854836e-05,0.0034911633,3.1292439e-06,0.00028833747,4.914403e-05
0.9984065,0.0,8.940697e-08,1.8179417e-05,0.0,9.998679e-05,0.00024932623,1.3619661e-05,4.2021275e-06,2.9683113e-05
0.74393624,1.1920929e-07,0.00045511127,7.161498e-05,7.003546e-05,0.0006625056,0.0008495748,0.4036895,0.0018535554,0.004958689
0.00028565526,0.00014904141,0.000613302,0.00010386109,2.2947788e-06,0.98836225,0.025149494,2.1576881e-05,0.004350543,6.3955784e-05
0.00012138486,6.2584877e-07,3.1888485e-06,0.0,1.66893e-06,3.2782555e-07,5.9604645e-08,1.1920929e-07,0.00029712915,0.9989966
4.976988e-06,0.9675802,0.02236092,0.015076518,2.5331974e-06,0.004819542,0.020280808,5.9604645e-08,0.9765924,0.0031199753
5.477667e-05,0.0015483499,0.0014870763,0.9999148,0.05900979,0.00014007092,0.3428909,5.9604645e-08,0.06255165,7.367134e-05
0.0070254207,1.4901161e-07,0.00022804737,3.0308962e-05,0.00016650558,4.377961e-05,0.0013837218,0.0043112338,0.9806837,0.0009575784
0.020063698,8.690357e-05,5.00679e-06,0.0036930442,2.413988e-06,0.00030583143,0.20627955,5.671382e-05,0.9307507,0.005717635
0.94316995,6.5267086e-06,5.662441e-07,9.933114e-05,2.7120113e-06,2.0295382e-05,0.0015223026,6.2584877e-07,0.012122422,0.004342556
0.6118417,0.0,8.34465e-07,2.0772219e-05,2.3841858e-07,1.0758638e-05,0.0017947257,1.9133091e-05,0.6744442,2.5123358e-05
0.0008100569,2.4944544e-05,8.3744526e-05,0.00018715858,0.0009186268,0.00072172284,0.009069383,2.682209e-05,0.9891431,0.000983119
0.00021991134,0.024505556,0.0006236136,0.002290547,0.0004695654,0.001046896,0.94747823,9.924173e-06,0.03393233,0.004087001
0.9964051,0.0,2.9802322e-08,1.5765429e-05,0.0,1.31726265e-05,0.00027048588,2.682209e-07,7.110834e-05,0.000104248524
0.9946891,1.1920929e-07,2.9802322e-07,2.8163195e-05,2.9802322e-08,7.4744225e-05,0.0004426837,3.963709e-06,8.678436e-05,0.00045359135
0.0007353425,3.4064054e-05,6.312132e-05,3.4570694e-06,0.002273798,1.5705824e-05,9.834766e-06,2.193451e-05,0.039255947,0.98045737
0.99564886,8.940697e-08,1.1026859e-06,9.000301e-05,2.0861626e-07,0.00031271577,0.000598222,6.2942505e-05,4.196167e-05,0.00018000603
3.5077333e-05,0.96600354,0.07534844,5.8054924e-05,5.096197e-06,0.0053845346,0.012377322,2.9802322e-07,0.2603948,0.011422008
9.208918e-06,1.7881393e-07,5.8352947e-05,0.9998458,0.27596018,2.0802021e-05,0.016385794,1.0728836e-06,0.0009737015,4.6491623e-06
0.0007600486,0.0012303293,1.23381615e-05,0.00063559413,4.7683716e-07,0.0011208653,0.98827064,7.390976e-06,0.0052615106,0.0001000762
0.99677026,0.0,5.364418e-07,4.2021275e-06,0.0,7.0631504e-05,0.0001154542,0.00033593178,8.255243e-06,5.8948994e-05
4.440546e-05,0.82201046,0.6588473,0.0009301007,0.0015905201,0.0040970147,0.0032632947,2.8014183e-06,0.88025594,0.001470238
1.2516975e-06,7.1793795e-05,0.01399824,0.00095915794,0.0004364848,0.99830854,0.008581728,0.00010442734,0.06110081,0.00052830577
0.9827333,3.874302e-07,2.9802322e-07,6.914139e-06,1.1920929e-07,2.3633242e-05,0.00034025311,1.1026859e-06,0.0008200407,0.0024319887
0.00097447634,0.0025824606,0.04938826,0.00022181869,7.987022e-06,0.9947823,0.030360699,0.0021270514,0.0025648773,0.0013375878
0.0009782314,0.0,1.0460615e-05,3.5762787e-07,2.026558e-06,3.2812357e-05,0.00019723177,0.002849251,0.9936652,0.0004170537
5.4836273e-05,0.013692558,0.004122734,0.006174296,0.0032306314,0.0801146,0.8809569,0.0007351637,0.60228634,0.005972773
8.484721e-05,0.96173924,0.055566013,0.047294438,0.00013527274,0.002764374,0.0740422,9.23872e-07,0.7306473,0.027510673
4.7802925e-05,0.006501466,0.014910787,0.0019764006,2.5987625e-05,0.9949013,0.00928247,0.0005790889,0.09826681,0.0013895035
0.0023708642,0.0010885,0.00021708012,2.9802322e-08,0.00012597442,3.4570694e-06,1.1444092e-05,4.4703484e-07,0.0056653917,0.98751616
0.4138281,4.3809414e-06,4.172325e-07,1.5437603e-05,2.9802322e-08,4.979968e-05,0.0033151805,7.748604e-07,0.5412333,0.002498448
0.12426564,0.0,5.155802e-06,2.771616e-06,1.9073486e-06,2.1129847e-05,0.00069236755,0.00078353286,0.9331453,0.00085118413
4.1633844e-05,0.0016463697,0.14720955,0.053085417,0.0019010305,0.9969766,0.005676776,0.0012552738,0.018805325,0.02185908
4.529953e-06,0.4350413,0.4937968,0.018673211,3.2424927e-05,0.0011045039,0.0021748245,1.013279e-06,0.98184663,0.00043815374
0.008267313,0.00041478872,0.00021559,0.00020837784,0.30671078,0.000611037,0.043266296,4.1157007e-05,0.7954892,0.014580131
1.6093254e-05,0.011233419,0.022674263,0.002961129,0.01562959,0.9711976,0.08289829,0.0008292794,0.878986,0.0017307997
0.8675544,5.9604645e-08,2.0563602e-05,4.23491e-05,2.3454428e-05,0.00014564395,0.00087845325,0.0013388097,0.06408423,0.000885725
0.53499806,0.00013104081,0.00019299984,8.484721e-05,0.00012332201,0.00025442243,0.0020613372,0.0002526939,0.2321046,0.11919409
0.011044681,0.003427446,0.017892033,0.1250183,0.07872599,0.92542267,0.04608804,0.1619069,0.009149402,0.04892102
0.00031650066,0.0015509427,0.87031806,0.0004943311,0.00073325634,0.000602901,0.0010293722,0.0059830844,0.8551661,0.0006290674
0.0008714497,0.50079435,0.3811916,0.32440197,0.10068083,0.7711636,0.1770137,0.0046575665,0.8523637,0.024497062
0.0008588731,0.03527081,0.0025308132,0.21979272,0.006726235,0.00069093704,0.85573614,0.00018411875,0.74032146,0.014404058
0.039162427,1.1920929e-07,6.1392784e-06,0.0054896474,0.9837525,0.0004504025,0.025199503,0.00012472272,0.00020936131,0.0009872913
0.0075811744,0.0003054738,0.99092966,0.0063998997,0.0026106536,0.00068706274,0.00085166097,0.0014037192,0.01163435,0.0005546808
0.024498552,9.23872e-07,7.301569e-06,8.3744526e-05,5.90086e-06,8.556247e-05,0.0031176805,1.5437603e-05,0.94743496,0.000564307
0.00027945638,0.011513501,0.09147388,0.9993857,0.005502641,0.0005363524,0.02299118,2.9802322e-08,0.016165853,2.9951334e-05
0.9961296,2.9802322e-08,2.9802322e-08,6.377697e-06,0.0,1.5616417e-05,0.00020423532,9.834766e-07,2.7805567e-05,0.0005942285
0.50079006,0.00013700128,1.66893e-06,0.00095659494,2.3841858e-07,0.0007663071,0.5949895,1.7881393e-05,0.016838282,0.00032803416
0.0001232624,8.127093e-05,0.0002760291,0.0021980405,0.0034891367,0.0005052686,0.007819474,8.404255e-06,0.9900532,0.0007175207
0.013026983,8.940697e-08,8.761883e-06,0.9911289,3.4332275e-05,0.0001128912,0.002568692,3.8444996e-06,2.2113323e-05,1.1175871e-05
0.9890553,0.0,1.8179417e-06,1.4811754e-05,2.9802322e-07,0.00014030933,0.0002219379,0.00033834577,4.6610832e-05,0.00018784404
0.310672,1.13248825e-05,0.00036242604,0.014610708,0.00014406443,0.0025888681,0.00090414286,0.0015613437,0.006119311,0.098760754
0.010193348,2.0563602e-06,4.7385693e-05,0.00010582805,9.2208385e-05,7.4625015e-05,0.0025772452,3.284216e-05,0.9670914,0.00060257316
0.00057432055,0.00068321824,0.0019316673,0.0007661283,3.1292439e-06,0.9952176,0.012722313,0.00014218688,0.004877299,0.0002619326
0.9792325,3.874302e-06,2.4735928e-06,0.00022646785,2.2679567e-05,0.00023326278,0.0024618208,1.2606382e-05,0.00041639805,0.0055618584
0.0008634627,2.9802322e-08,3.6776066e-05,0.99303997,3.761053e-05,8.264184e-05,0.0031245947,6.556511e-06,2.1487474e-05,0.00017943978
0.9826603,5.811453e-06,2.3841858e-06,4.4703484e-07,2.0861626e-07,3.71933e-05,0.0002628863,3.2782555e-06,0.0011168122,0.022604704
0.0014850497,0.0,1.7881393e-07,1.4841557e-05,2.0861626e-07,5.8710575e-06,0.0005184412,0.9962621,2.0384789e-05,6.568432e-05
0.0044267476,0.0018573105,0.00012886524,0.00016763806,5.00679e-06,0.0497317,0.910197,0.00057163835,0.36113015,0.00043281913
0.00097471476,2.3841858e-06,0.00016921759,0.00011238456,1.4305115e-05,0.000121325254,0.0010900199,8.827448e-05,0.99094445,0.0004541278
0.9933299,1.1920929e-07,5.9604645e-07,1.4811754e-05,2.3841858e-07,9.018183e-05,0.0002616346,6.0796738e-06,8.663535e-05,0.0011337698
0.023855388,0.008208543,4.7266483e-05,5.5134296e-06,7.870793e-05,6.377697e-05,0.003030926,5.8710575e-06,0.56127554,0.44279984
0.03596264,9.024143e-05,0.00038167834,0.00077205896,2.6524067e-06,0.97987306,0.013091922,0.00043064356,0.00018844008,0.00057023764
0.029846758,2.5331974e-06,2.554059e-05,0.97165453,3.7521124e-05,0.00011372566,0.0054942667,1.9967556e-06,0.012255549,8.317828e-05
0.2766332,0.00010624528,0.0007983744,0.00012540817,0.00023812056,0.00051775575,0.009765238,0.0011845231,0.50014,0.023731202
2.4914742e-05,0.9352987,0.100409836,0.00019177794,0.000118494034,0.016749173,0.015691012,8.821487e-06,0.35031757,0.04949504
0.9837117,2.3841858e-07,1.4901161e-07,2.2858381e-05,2.9802322e-08,1.7732382e-05,0.0006609559,3.2782555e-07,0.0010486841,0.00049194694
0.8067727,8.6426735e-07,8.791685e-05,2.4050474e-05,2.9563904e-05,0.0011754632,0.0032265484,0.011103392,0.026310652,0.004671514
0.00011110306,3.8444996e-06,0.00018206239,0.99620485,5.00679e-06,0.00047385693,0.0048015118,1.2844801e-05,0.022270262,0.00084251165
0.99127823,2.9802322e-08,0.0,5.90086e-06,0.0,5.6028366e-06,0.0002835095,4.7683716e-07,0.00012999773,0.0011183321
0.0013799965,0.0012542307,0.019056767,0.004981011,2.5063753e-05,0.99689615,0.010445714,0.006196648,0.017844051,0.0062130988
6.791949e-05,0.9363167,0.090966135,0.030563444,9.3221664e-05,0.012381107,0.022016555,9.834766e-07,0.96053016,0.004012257
0.9874216,2.682209e-07,1.1920929e-07,7.778406e-06,8.940697e-08,8.612871e-06,0.00034543872,2.3841858e-07,0.00021767616,0.002136737
0.99060154,2.9802322e-08,4.172325e-07,0.00025227666,2.9802322e-07,0.00010859966,0.0006324053,6.467104e-06,0.0003273487,8.943677e-05
0.045443624,0.00034692883,5.6028366e-06,0.00015813112,3.5762787e-07,0.00092071295,0.8925196,8.285046e-06,0.00014200807,0.00015038252
0.055037737,0.0,1.4305115e-06,2.7656555e-05,3.6358833e-06,3.6120415e-05,0.0006713569,0.9689467,3.5077333e-05,0.00015962124
1.3947487e-05,6.9499016e-05,0.00052806735,7.1287155e-05,0.00031292439,0.9790144,0.094402194,1.66893e-05,0.020249844,5.850196e-05
0.0002513826,0.9207171,0.07589355,0.00014919043,5.8710575e-06,0.2881199,0.009143889,1.3649464e-05,0.44828403,0.005465567
0.99222136,5.9604645e-08,5.9604645e-08,1.4722347e-05,2.0861626e-07,3.3795834e-05,0.00036478043,7.4505806e-07,0.00012078881,0.00051283836
0.00054600835,5.9604645e-07,0.00010353327,0.0023257136,2.2023916e-05,4.8935413e-05,0.007218659,5.3048134e-06,0.99352694,8.46386e-06
0.9956494,2.9802322e-08,2.9802322e-07,1.1861324e-05,0.0,9.509921e-05,0.00023368001,1.6480684e-05,6.0260296e-05,0.00023469329
3.7550926e-06,5.9604645e-08,0.00027438998,0.9998677,0.07030943,5.632639e-06,0.0077646077,1.4901161e-06,0.016262472,4.6789646e-06
0.00095045567,0.0008383095,0.003210187,0.009699106,0.0030033588,0.948073,0.08426896,7.009506e-05,0.0472762,0.00038954616
0.98144966,0.0,1.4305115e-06,1.2040138e-05,1.7881393e-07,0.0003924966,0.00032150745,0.005741775,3.0189753e-05,0.0014042854
0.00086835027,0.06778312,0.0012301207,0.00671196,5.725026e-05,0.0016403198,0.57345915,0.00018018484,0.8629836,0.04982704
0.72019196,2.503395e-06,5.1885843e-05,1.3977289e-05,0.0007482469,0.00022315979,0.0013512969,0.0011973381,0.03478518,0.057444185
0.5693355,3.5762787e-07,1.9967556e-06,4.6044588e-05,0.028573543,0.00013706088,0.00293836,0.0006400645,0.0026535094,0.05786565
0.98622984,8.940697e-08,1.4007092e-06,1.564622e-05,1.4901161e-07,0.000118762255,0.00043821335,3.296137e-05,0.00062438846,0.00020030141
0.019566715,4.172325e-07,2.4437904e-06,5.0246716e-05,1.4305115e-06,4.607439e-05,0.0021664798,8.940697e-06,0.97190887,0.00058186054
0.019090474,9.924173e-06,9.608269e-05,1.92523e-05,1.6063452e-05,8.9257956e-05,0.0010383725,0.0001116395,0.9261391,0.0060743093
0.0037615895,1.2785196e-05,0.0005426407,4.634261e-05,0.0007637739,0.00017616153,0.0036688447,0.0015620887,0.94338334,0.017820239
0.08119324,1.1920929e-07,8.85129e-06,2.1964312e-05,1.4901161e-07,4.5597553e-05,0.0029635727,3.772974e-05,0.95501316,2.3722649e-05
0.00070130825,1.4901161e-07,2.7120113e-06,0.99733573,8.136034e-06,0.000112205744,0.005850047,7.4505806e-07,7.659197e-06,5.4180622e-05
0.0001705885,0.0002117753,7.95722e-06,8.940697e-08,5.5134296e-06,0.0002874434,0.0009934902,6.0498714e-06,0.93973994,0.045305908
5.4746866e-05,6.508827e-05,0.0002489984,0.9991756,9.340048e-05,7.8737736e-05,0.03204927,6.556511e-07,0.055286527,0.00067716837
3.424287e-05,8.34465e-07,1.14142895e-05,0.999763,0.00018391013,2.2500753e-05,0.021454185,3.5762787e-07,0.0012264252,0.00019809604
0.9801667,5.9604645e-08,1.5497208e-05,2.732873e-05,4.4703484e-07,0.00039479136,0.00042441487,0.0017317235,0.0005607903,0.00086191297
0.010743648,3.2782555e-07,0.00013783574,6.991625e-05,0.0013000071,0.00012987852,0.0032436848,0.0006620884,0.9797079,0.00037023425
0.00048682094,0.0004911423,0.00028905272,0.9864541,0.9707668,0.0006057918,0.56017005,3.6269426e-05,0.022589505,0.00066128373
0.9982695,0.0,5.9604645e-08,1.4841557e-05,0.0,2.670288e-05,0.0002462864,1.4901161e-06,2.142787e-05,0.00010326505
0.003072679,2.5868416e-05,8.204579e-05,0.00017955899,6.368756e-05,0.00015193224,0.0029485226,4.386902e-05,0.97076094,0.006475985
0.084820926,0.0003851354,7.69496e-05,0.0059143007,0.0006535053,0.0008106828,0.047407597,1.1354685e-05,0.87388116,0.0029435158
0.00060009956,2.3841858e-07,6.556511e-05,7.978082e-05,0.0005288422,0.000115156174,0.0017511249,0.0002616644,0.9943785,0.00042042136
3.4064054e-05,0.94973505,0.01595679,0.0031039715,2.3543835e-06,0.002460003,0.013752401,2.9802322e-07,0.91590136,0.012306958
0.00013807416,1.1920929e-07,3.1292439e-06,0.9992403,0.0029526353,7.197261e-05,0.007827103,9.834766e-07,0.00014433265,2.2143126e-05
0.0003004372,0.17087856,0.43143365,0.012129903,0.00090780854,0.9805885,0.025492072,0.00039878488,0.050676525,0.0054670274
0.0041071475,0.0018263161,0.0092846155,0.00022032857,2.2172928e-05,0.9784812,0.037593096,0.0041564107,0.005913198,0.0009588897
4.377961e-05,0.00085514784,0.007925838,0.004777521,0.0001514256,0.99768114,0.009338528,0.0001668632,0.0068324506,0.0006749034
0.9874297,0.0,3.0398369e-06,2.5004148e-05,2.682209e-07,0.0001822114,0.00044620037,0.00033184886,0.00077420473,0.00016453862
0.00021335483,0.0,8.702278e-05,1.1831522e-05,0.00021883845,1.937151e-05,0.00059875846,0.0013021827,0.9986859,1.9669533e-06
0.0067050457,2.3841858e-07,2.5004148e-05,1.835823e-05,1.4007092e-06,6.5773726e-05,0.0017365515,6.130338e-05,0.9880495,0.00016069412
0.009729177,2.9802322e-08,0.0002053976,7.3313713e-06,4.762411e-05,4.079938e-05,0.0007378161,0.03285581,0.9827841,0.0008549392
0.045990407,8.940697e-08,3.784895e-06,7.3611736e-06,1.7881393e-07,8.3595514e-05,0.002197951,0.0002489984,0.9753517,0.00031208992
0.0005105734,2.9802322e-07,0.00015324354,0.0001874268,0.000110358,4.4584274e-05,0.002026856,6.750226e-05,0.99388474,8.773804e-05
0.0004505515,0.8286085,0.0501644,3.0696392e-05,0.00019040704,0.0006656945,0.012503356,6.645918e-06,0.10016635,0.2697454
0.00011366606,0.0007431805,0.0008739233,0.9993173,0.00140661,8.431077e-05,0.099409044,1.4901161e-07,0.26831865,0.00015878677
0.9354016,2.9802322e-08,7.4505806e-06,7.545948e-05,5.9604645e-08,0.00013396144,0.0011940897,0.000112980604,0.054822326,4.3183565e-05
0.007145822,4.7683716e-07,5.77271e-05,8.735061e-05,6.9111586e-05,9.483099e-05,0.0022996962,0.00014790893,0.98652697,0.00025337934
0.010109842,0.0,0.00020205975,4.4554472e-05,2.220273e-05,2.4527311e-05,0.0034735203,0.0007889569,0.98758996,3.784895e-06
4.6163797e-05,0.73648006,0.09849265,0.04933086,0.0003235638,0.008250743,0.027753979,4.351139e-06,0.9665344,0.008079022
0.09060821,0.034324557,0.09117305,0.00012141466,7.215142e-05,0.012163907,0.15959841,0.0035786927,0.0024067163,0.0344567
0.24591812,0.00045582652,1.5765429e-05,3.5762787e-07,0.0013408363,1.0937452e-05,0.00060611963,5.3942204e-06,0.009450048,0.852682
0.997465,0.0,8.940697e-08,2.6643276e-05,0.0,3.3468008e-05,0.00028255582,2.2649765e-06,3.0517578e-05,7.557869e-05
0.89379466,9.23872e-07,4.8667192e-05,2.193451e-05,1.9222498e-05,0.00056245923,0.0018416345,0.003777206,0.013199061,0.01225695
0.96932685,2.9802322e-08,9.834766e-07,3.8444996e-06,1.1920929e-07,5.8233738e-05,0.00023052096,0.0001116395,0.008516401,0.0006144941
0.0004017949,0.78770554,0.31707388,0.0003374815,2.2441149e-05,0.005509168,0.020883977,2.6226044e-06,0.08385044,0.014610231
0.027966708,0.00012353063,0.00020468235,0.00018620491,5.108118e-05,0.00074997544,0.013560295,4.094839e-05,0.9575453,0.0013649166
0.0009784997,0.55646974,0.59551984,0.8371588,0.009343147,0.005786091,0.03489551,6.7949295e-06,0.47113985,0.0048916936
0.842733,4.7683716e-07,7.95722e-06,7.650256e-05,1.6987324e-06,0.00018590689,0.0019284189,1.4871359e-05,0.098050386,0.00025191903
0.80189884,2.8908253e-06,4.6491623e-06,3.0130148e-05,2.193451e-05,6.759167e-05,0.0018290281,1.5944242e-05,0.11504173,0.00817129
0.0009222925,0.25759494,0.2741648,0.9961318,0.3518476,0.02108699,0.07836717,2.682209e-07,0.075157255,0.0001668036
6.7949295e-06,0.97275937,0.057578117,5.5015087e-05,6.9737434e-06,0.009615749,0.00938496,8.6426735e-07,0.5778173,0.015054405
0.001723975,1.5288591e-05,6.848574e-05,0.000109523535,6.878376e-05,0.00014162064,0.0019934773,3.555417e-05,0.97597706,0.004795462
0.9834745,2.2947788e-06,2.9802322e-07,6.1690807e-06,2.9802322e-08,1.8298626e-05,0.0006856024,3.5762787e-07,0.0010362267,0.0048025846
0.00015240908,3.3974648e-06,0.0004968047,0.00041505694,0.00018015504,5.173683e-05,0.004391432,3.6269426e-05,0.99197865,0.000557065
4.0888786e-05,2.2351742e-06,0.0016146898,0.0007146895,0.1454148,0.000446409,0.016617566,7.429719e-05,0.993888,1.7523766e-05
0.98532045,0.0,3.5762787e-06,2.2351742e-05,1.4901161e-07,0.00021976233,0.00035837293,0.0016624033,7.516146e-05,0.0001872778
1.9103289e-05,0.0044233203,0.00827229,0.0020623803,0.010084808,0.94379973,0.070875406,0.0007466376,0.91919076,0.0014109313
4.8696995e-05,0.43275794,0.30643326,0.19727436,0.025971115,0.9880571,0.022818387,0.00020179152,0.54036266,0.0059199333
0.0038788915,1.579523e-05,0.000110298395,0.9901035,0.00041726232,0.00082191825,0.016351372,3.0398369e-06,0.0004963577,0.0016079843
0.99588025,2.9802322e-08,8.34465e-07,3.6478043e-05,0.0,0.00018131733,0.0003245473,4.1633844e-05,3.97861e-05,0.000121861696
0.95139515,4.7683716e-07,6.4104795e-05,4.529953e-06,2.861023e-06,0.0012824237,0.0006289184,0.022862673,0.000395149,0.025704414
0.004128039,0.2144688,0.6695596,1.6838312e-05,0.0017339587,0.00059226155,0.0014777184,0.00020983815,0.30454236,0.012791425
0.94477654,0.0,1.3500452e-05,1.9460917e-05,1.5795231e-06,0.00017860532,0.0003002584,0.023205996,0.00042197108,0.00026381016
0.99342394,8.940697e-08,6.556511e-07,4.5716763e-05,1.7881393e-07,0.00013840199,0.000351727,1.7851591e-05,0.00014185905,0.000521183
0.0011537075,0.31289947,0.0070173442,0.97311753,0.017746389,0.0036763847,0.7433443,1.758337e-05,0.5360795,0.02451986
0.99378514,5.9604645e-08,8.940697e-08,4.887581e-06,5.9604645e-08,1.5199184e-05,0.00018924475,8.046627e-07,2.336502e-05,0.0014291108
0.0052785873,1.2516975e-06,0.00010377169,2.0474195e-05,8.285046e-06,0.0001423657,0.0017175078,0.00033724308,0.9856407,0.00064763427
0.03518516,0.012249649,6.389618e-05,0.013166159,5.364418e-06,0.0011785328,0.9071802,5.3435564e-05,0.38682532,0.0049135387
5.620718e-05,0.0,0.0005940795,0.9821705,9.298325e-06,5.6922436e-06,0.0020335913,0.0005913079,0.00048667192,0.000110924244
0.9902742,1.1920929e-07,1.4901161e-07,1.6093254e-05,1.4901161e-07,3.4213066e-05,0.00031927228,1.1622906e-06,0.00026482344,0.0006005764
0.9981545,2.9802322e-08,8.940697e-08,1.5348196e-05,0.0,3.1113625e-05,0.00026801229,1.013279e-06,2.5808811e-05,0.00018846989
8.5026026e-05,0.0019798279,0.023922712,0.0010142326,0.00017598271,0.99132067,0.037925303,0.00014227629,0.014352202,0.0007612705
0.00017091632,5.9604645e-08,0.0012521446,5.0365925e-06,9.000301e-06,2.5451183e-05,0.00090527534,0.040356934,0.986269,0.0007785857
4.7683716e-05,7.2687864e-05,5.2392483e-05,0.0015344024,1.1920929e-05,0.00031119585,0.796404,0.00095304847,0.96274984,0.0016309321
0.004255533,0.0,3.9041042e-06,4.8547983e-05,1.1622906e-06,1.3679266e-05,0.0035134554,1.2010336e-05,0.9969274,7.95722e-06
0.00010636449,0.66075766,0.46882585,0.0022711754,0.0002745986,0.00088611245,0.005277425,1.6093254e-06,0.40793377,0.018036902
0.99325174,0.0,2.9802322e-08,1.1831522e-05,0.0,1.1712313e-05,0.00032958388,2.4735928e-06,0.00021541119,0.00072187185
7.674098e-05,4.172325e-07,1.3411045e-06,0.0,1.2814999e-06,5.9604645e-08,2.9802322e-08,2.9802322e-08,0.0005117953,0.9988929
0.006226182,8.940697e-08,3.8444996e-06,3.0994415e-06,0.9955703,3.1650066e-05,0.019605935,7.599592e-06,0.0003156066,0.0006555617
0.9375237,1.2218952e-05,2.5629997e-06,5.6028366e-06,4.4107437e-06,4.8041344e-05,0.0005956292,4.9471855e-06,0.0055995584,0.06501371
0.08345187,0.000118643045,0.0001847148,1.3411045e-06,0.0008343756,0.00029096007,0.004171878,0.0013521314,0.0840379,0.5299217
0.9787065,1.4901161e-07,2.9802322e-06,7.650256e-05,2.9802322e-08,0.00019451976,0.00081059337,2.5689602e-05,0.010737628,0.00012981892
0.000243783,1.4901161e-06,9.685755e-06,0.0,9.000301e-06,1.4901161e-06,2.3841858e-07,7.748604e-07,0.0010060668,0.9974878
0.004016131,2.0861626e-07,0.00019454956,7.867813e-06,5.376339e-05,9.676814e-05,0.003277719,0.024481386,0.97543436,0.0026693046
0.6619779,0.00014266372,4.3809414e-06,0.00012010336,2.4348497e-05,3.787875e-05,0.004482776,3.7550926e-06,0.21412131,0.12815821
0.9889715,4.172325e-07,4.4703484e-07,7.545948e-05,0.0,4.568696e-05,0.0003464222,5.066395e-07,0.0009010434,0.00026798248
0.00013485551,0.0022936761,7.238984e-05,0.00097328424,3.4570694e-06,0.0012725294,0.98887455,0.00014156103,0.015826434,0.0007458627
6.7174435e-05,0.0005450845,0.011571944,0.0007032752,9.208918e-06,0.99792755,0.0056726635,0.0015958846,0.0065503716,0.0029961467
0.03507319,2.5629997e-06,0.000397861,0.97126806,9.0420246e-05,0.00017005205,0.005943358,2.9206276e-06,6.6161156e-05,6.943941e-06
0.9791572,2.3841858e-07,2.3245811e-06,2.554059e-05,1.9073486e-05,0.0003324747,0.0007852614,0.00010976195,0.00024431944,0.002690792
0.00027954578,4.6789646e-06,4.0888786e-05,0.99360156,3.5762787e-07,0.00016736984,0.010783166,1.4424324e-05,0.0050320327,0.005922377
0.00033947825,0.92087483,0.02447921,0.9929219,0.0005336702,0.002368033,0.30135107,0.0,0.5371848,0.0019619465
0.9945246,2.9802322e-08,6.2584877e-07,1.30832195e-05,0.0,0.00012779236,0.0002565086,7.298589e-05,5.9127808e-05,0.00066033006
0.00024968386,0.0016108751,0.01572588,0.16704205,0.246831,0.95241964,0.06440258,2.8282404e-05,0.002182126,0.0007698238
0.001300782,1.4901161e-07,9.208918e-06,0.9979898,0.0,4.285574e-05,0.010313988,2.503395e-06,5.7071447e-05,0.0006160736
0.0011798143,0.0,3.8415194e-05,8.7320805e-06,8.59797e-05,1.1205673e-05,0.00032752752,0.003102839,0.9966105,6.109476e-06
0.00078094006,3.427267e-06,0.000107616186,0.8775664,0.0042203963,7.1287155e-05,0.018826336,5.725026e-05,0.661156,0.00080543756
0.00013896823,1.4603138e-06,1.8775463e-06,0.0,1.2814999e-06,1.7881393e-07,8.940697e-08,0.0,0.0010135472,0.9986975
0.00024947524,0.0,2.592802e-06,0.9985223,8.940697e-08,8.404255e-06,0.007327497,2.5629997e-06,2.9951334e-05,0.0001630485
0.066304535,0.00057837367,2.0980835e-05,0.0007094443,5.2154064e-06,0.0011437535,0.5648949,0.00020474195,0.5961332,0.006883979
0.9954505,2.9802322e-08,1.7881393e-07,6.2584877e-06,8.940697e-08,5.8084726e-05,0.0002142787,1.1086464e-05,3.5077333e-05,0.00078585744
0.99906814,0.0,0.0,4.3809414e-06,0.0,5.5134296e-06,0.00013440847,2.682209e-07,2.2649765e-06,5.6624413e-05
0.90289414,2.3841858e-07,2.4080276e-05,8.5532665e-05,6.854534e-07,0.00014927983,0.0020788908,0.0013526678,0.093556374,0.00035387278
0.42113426,0.00017631054,5.9187412e-05,0.0014691055,3.0398369e-06,0.007315308,0.4682877,0.062877655,8.803606e-05,0.00305143
8.85129e-06,0.0002347827,8.6933374e-05,0.994126,0.001381129,0.0001347959,0.2194035,9.536743e-07,0.8186412,0.00026744604
0.0040091574,0.31094185,0.016308993,0.00059580803,0.0024395585,0.37503695,0.10591155,0.0018955469,0.75082433,0.06510192
0.006768763,7.95722e-06,0.00018015504,5.221367e-05,0.0008972883,9.930134e-05,0.0027225316,0.00028780103,0.94248235,0.0102368
7.370114e-05,0.68954533,0.070637524,0.010617584,0.0013508797,0.0033614635,0.0074807107,8.165836e-06,0.9235737,0.15527296
0.48519912,0.0,4.2021275e-06,3.6656857e-05,8.940697e-07,7.042289e-05,0.00024464726,0.796774,0.00010550022,0.00025770068
0.006918907,8.520484e-05,9.0926886e-05,0.000249058,0.00034222007,0.00035139918,0.0044053793,3.5196543e-05,0.96211934,0.007968485
0.9894925,3.874302e-07,5.2452087e-06,4.7713518e-05,4.172325e-07,0.00024798512,0.00049445033,9.098649e-05,0.00021010637,0.0016154647
0.7361242,2.2947788e-06,4.172325e-07,2.142787e-05,1.4901161e-07,2.3543835e-05,0.0013451278,1.1622906e-06,0.17445862,0.0035119653
0.0015921593,0.0031204522,0.98133874,9.149313e-05,6.246567e-05,0.0001887083,0.00040346384,7.5906515e-05,0.06493899,0.00012528896
0.9888223,5.9604645e-08,2.0861626e-06,1.9133091e-05,2.3841858e-07,0.0003017485,0.00043034554,0.00012227893,0.00029283762,0.00078734756
4.336238e-05,2.2053719e-06,0.0007290244,6.997585e-05,0.00018924475,5.3167343e-05,0.002374798,0.0005091727,0.9950639,0.0013920665
0.28044194,2.9802322e-07,6.854534e-07,5.3435564e-05,5.066395e-07,3.194809e-05,0.005487025,3.2186508e-06,0.86635715,0.0003284812
0.9795468,1.013279e-06,9.23872e-07,6.341934e-05,2.115965e-06,6.058812e-05,0.0006020367,1.4603138e-06,0.0005584359,0.0016736388
0.015450686,5.349517e-05,3.7282705e-05,0.00018060207,0.0003491044,0.00020003319,0.0047126114,2.5570393e-05,0.8988563,0.018322974
0.047536224,2.9802322e-07,1.2010336e-05,4.2378902e-05,3.8713217e-05,7.1793795e-05,0.0024579465,0.00012749434,0.9576438,0.0012005568
0.00029671192,0.0009649992,0.9796796,0.002852708,0.0018409491,0.00027135015,0.0013719499,0.003226757,0.22550929,0.0013855398
0.0022984743,5.2452087e-06,0.00022903085,0.0017780662,0.22675738,0.0018526018,0.047938406,0.0002644062,0.9791236,0.00020566583
0.007778764,1.975894e-05,0.001034379,1.3589859e-05,0.82232594,0.00020897388,0.02480328,0.005749494,0.1762372,0.052004874
0.15357578,1.1324883e-06,8.6426735e-07,5.8591366e-05,4.7683716e-07,4.5001507e-05,0.0033318996,2.115965e-06,0.8389891,0.0012654662
0.000117212534,1.4603138e-06,0.00012603402,7.537007e-05,2.5957823e-05,5.6892633e-05,0.0010879636,2.232194e-05,0.99469924,0.00031474233
0.9936036,5.9604645e-08,8.940697e-08,5.6028366e-06,8.940697e-08,1.0758638e-05,0.00024491549,2.9802322e-07,4.8696995e-05,0.0010838211
0.021176934,7.760525e-05,3.8266182e-05,0.00019109249,0.0002516806,0.00028520823,0.0080426335,7.236004e-05,0.9376288,0.023704171
2.092123e-05,0.028745115,0.031214058,0.0053857565,0.00074255466,0.99117804,0.017133862,0.001350075,0.76850426,0.0026034415
0.17505458,4.172325e-07,7.838011e-06,9.357929e-06,1.1712313e-05,0.0003568232,0.0039912164,0.0012019277,0.9388818,0.0020833015
0.93191147,2.9802322e-08,5.9604645e-08,5.6028366e-06,5.9604645e-08,2.2917986e-05,0.00039178133,2.6524067e-06,0.019769132,0.0003387332
0.9462687,3.0398369e-06,3.874302e-07,8.159876e-05,8.34465e-07,2.6583672e-05,0.0013487935,1.1026859e-06,0.011407554,0.004814625
0.001866579,3.5762787e-07,1.2665987e-05,7.7307224e-05,1.6510487e-05,6.827712e-05,0.0021809638,3.322959e-05,0.99342847,0.000431031
0.0043280423,0.0021870136,0.9785639,0.00016793609,4.3660402e-05,0.0004324913,0.00029081106,6.0111284e-05,0.009872347,0.0002590418
0.99575466,2.9802322e-08,5.9604645e-08,1.4066696e-05,0.0,1.1861324e-05,0.00028720498,1.7881393e-07,2.810359e-05,0.00027129054
0.8123393,1.1175871e-05,1.4901161e-06,4.053116e-06,0.007903904,4.374981e-05,0.005788386,8.314848e-06,0.0069085658,0.07713914
0.98658705,0.0,2.3543835e-06,1.8447638e-05,1.1920929e-07,0.00015106797,0.00024685264,0.0015716851,5.5104494e-05,9.483099e-05
1.9043684e-05,0.80047166,0.39576566,0.056328088,0.042924225,0.85873616,0.04393667,0.00015425682,0.9208113,0.004663974
0.96829927,5.662441e-07,5.543232e-06,3.0606985e-05,1.66893e-06,0.00018271804,0.0005735755,5.2571297e-05,0.0047294497,0.0015322566
6.824732e-06,0.95106065,0.02657932,0.0013235509,4.9471855e-06,0.012950689,0.021458149,1.2516975e-06,0.94495654,0.006553769
6.9230795e-05,0.94859886,0.23021773,0.00011101365,0.0011899173,0.055411696,0.010085106,3.7431717e-05,0.63375235,0.027174622
0.062542975,1.3113022e-06,3.9041042e-06,7.4863434e-05,2.3841858e-07,5.415082e-05,0.0024836361,4.261732e-06,0.93436533,0.00025963783
4.541874e-05,5.364418e-07,3.7699938e-05,0.9990277,0.14125255,9.956956e-05,0.01602456,1.847744e-06,9.8109245e-05,4.9054623e-05
0.7175958,5.9604645e-08,5.197525e-05,2.0056963e-05,4.7683716e-07,0.0001257956,0.002431661,0.0014033616,0.4611666,5.2064657e-05
0.0041614175,2.3841858e-07,2.95043e-06,1.8000603e-05,7.1525574e-07,0.0001244247,0.003771603,2.0682812e-05,0.9904101,0.00026330352
0.010771334,0.01497373,0.00015929341,0.0004130304,1.7881393e-07,0.006044388,0.8534753,4.258752e-05,0.26087636,0.0007171631
1.4901161e-05,1.1026859e-06,6.109476e-06,0.99984515,8.940697e-07,1.2129545e-05,0.015642166,8.940697e-08,0.004685223,7.659197e-05
0.0001167655,0.004962057,9.2595816e-05,0.0008728206,7.4505806e-07,0.0008287728,0.9918975,9.316206e-05,0.0044750273,0.0008560717
0.8706428,5.9604645e-08,2.336502e-05,5.543232e-06,1.7881393e-07,9.804964e-05,0.00044310093,0.0020970404,0.19320554,0.0016289055
0.98726547,0.0,4.8577785e-06,4.1604042e-05,5.9604645e-08,0.0001411736,0.00028848648,0.002443254,8.672476e-05,5.5730343e-05
2.6106834e-05,0.0041646957,0.14526829,0.17482781,0.012537599,0.99504906,0.009544343,0.00073701143,0.013185829,0.014929563
7.456541e-05,5.662441e-07,0.00017237663,2.1398067e-05,3.0517578e-05,6.0081482e-05,0.0011688769,4.7832727e-05,0.9961261,0.0001694262
0.00019803643,0.8954972,0.10605821,0.65236926,0.0029735863,0.013628304,0.07663575,2.5331974e-06,0.9524405,0.014411658
0.112941116,3.427267e-06,4.4703484e-06,2.0951033e-05,1.2218952e-05,4.246831e-05,0.0013577342,3.117323e-05,0.82688624,0.02195561
0.0001513362,0.79713225,0.0021710694,0.01606366,5.0365925e-06,0.0013336539,0.11767429,1.937151e-06,0.9437977,0.027285814
0.9781644,2.3841858e-07,5.990267e-06,2.8043985e-05,3.656745e-05,0.0004376769,0.0006481707,0.00015351176,0.000104129314,0.003090471
0.99340296,0.0,8.940697e-07,1.7017126e-05,2.9802322e-08,0.00014543533,0.000246495,0.00025689602,4.5746565e-05,0.00021412969
4.4703484e-06,2.9802322e-08,2.670288e-05,0.9994158,6.7055225e-06,6.1392784e-06,0.0036812127,5.364418e-07,0.009644121,5.170703e-05
0.9958035,2.9802322e-08,2.9802322e-08,1.7493963e-05,2.9802322e-08,2.9146671e-05,0.00041401386,1.1920929e-06,4.5776367e-05,0.00044244528
0.04496619,0.006629288,4.2140484e-05,8.195639e-06,7.2836876e-05,5.00679e-05,0.0017468333,7.480383e-06,0.5272802,0.593255
0.014235795,0.0,1.3947487e-05,4.553795e-05,8.136034e-06,3.2514334e-05,0.0005314946,0.97983134,0.0024219155,0.000448972
0.00067192316,8.940697e-08,5.978346e-05,7.9900026e-05,6.997585e-05,7.250905e-05,0.0010114014,0.00011983514,0.99523103,6.9111586e-05
1.5884638e-05,2.9802322e-08,7.7188015e-06,0.9991627,7.867813e-06,1.9669533e-06,0.005620986,1.1622906e-06,0.01289776,3.4362078e-05
8.007884e-05,0.9024762,0.40925032,0.0069093704,0.28207242,0.022966951,0.06225267,1.424551e-05,0.2882092,0.0378204
0.0002682507,4.6610832e-05,0.0007968247,2.95043e-06,0.00024959445,0.000105172396,2.1606684e-05,0.006703317,0.31356746,0.9268156
8.2701445e-05,8.940697e-08,1.6778708e-05,0.99876857,0.00021907687,1.1265278e-05,0.006480038,1.9073486e-06,0.0008763969,7.650256e-05
0.00010883808,1.4305115e-06,2.1278858e-05,0.99749625,2.9802322e-08,4.4852495e-05,0.0065309405,2.6524067e-06,0.00807485,0.0012885928
0.0056992173,2.0861626e-07,8.314848e-06,0.00013411045,1.2516975e-06,6.097555e-05,0.002388686,1.642108e-05,0.98961544,5.5015087e-05
0.7426313,1.8775463e-06,6.645918e-06,1.3291836e-05,8.940697e-07,5.8293343e-05,0.0011922121,5.1289797e-05,0.33848298,0.0047305822
0.99531984,0.0,1.1920929e-07,3.4570694e-06,2.9802322e-08,6.830692e-05,0.00012630224,0.00013113022,8.46386e-06,9.6678734e-05
0.0024381578,0.03195685,0.0030087233,0.04088083,4.5865774e-05,0.0029209554,0.9252094,0.0036751628,0.0024789572,0.028691858
0.18632469,6.556511e-06,2.8908253e-06,0.0004439056,1.9073486e-06,0.00010380149,0.010338396,4.887581e-06,0.9013399,0.001601398
0.9830719,2.682209e-07,1.1920929e-07,4.261732e-06,5.364418e-07,2.5987625e-05,0.00037252903,1.2814999e-06,0.00023692846,0.0059280097
0.99152565,2.3841858e-07,9.834766e-07,2.169609e-05,7.1525574e-07,0.0001257658,0.0003465414,9.775162e-06,0.000101685524,0.0021037161
0.0030549765,0.0,6.9737434e-06,1.9520521e-05,3.1888485e-06,1.1891127e-05,0.0006350875,0.9898103,0.0005289614,0.00013643503
0.990878,5.9604645e-08,4.172325e-07,1.9937754e-05,2.9802322e-07,6.836653e-05,0.00030863285,1.4036894e-05,0.00018393993,0.00085902214
0.009484291,0.0,5.364418e-07,3.1888485e-05,3.2782555e-07,6.198883e-06,0.00014781952,0.9907537,2.5331974e-05,7.581711e-05
1.1771917e-05,0.04981032,0.8791847,0.0017659664,0.0015060604,0.0021407306,0.0010171235,9.864569e-05,0.96065825,0.00034552813
0.0013108253,0.0007356405,0.9923937,0.0036339164,0.0017279088,0.00032874942,0.0004375577,0.00017207861,0.04979199,0.00020435452
0.99126494,4.7683716e-07,3.9041042e-06,2.4825335e-05,5.662441e-07,0.0002065897,0.00035753846,3.1799078e-05,9.521842e-05,0.002334267
2.4110079e-05,0.004479915,0.038594633,0.0015954375,7.867813e-06,0.9990683,0.004439205,0.0018557012,0.011331022,0.0035956204
0.94668865,8.940697e-07,4.7385693e-06,3.2782555e-07,3.0726194e-05,0.0004094541,0.00021848083,0.00029814243,4.4107437e-05,0.13031712
0.9486172,0.0,2.2351742e-06,4.87864e-05,5.1259995e-06,0.00013402104,0.0008968413,0.00516513,0.0021938086,0.0005951226
0.00019443035,0.07459232,0.6990682,0.00075274706,0.001439184,0.0005444288,0.0042660832,4.017353e-05,0.44398397,0.0037312508
0.005716592,2.7656555e-05,0.9373925,0.16738424,0.00014904141,0.00041601062,0.009441197,0.18442723,0.003976524,0.00063332915
0.001036197,0.35581702,0.0010306835,0.9984982,0.0005199909,0.00078445673,0.9396225,1.013279e-06,0.03859499,0.0075182915
3.5196543e-05,0.00014963746,0.00040227175,0.99843645,0.0005829036,9.790063e-05,0.04055494,2.9802322e-07,0.31646943,0.00016075373
0.090441406,0.16586614,0.0024219155,2.5570393e-05,0.014156431,0.00034195185,0.010582507,4.1007996e-05,0.025814444,0.60801053
0.0014178157,0.001046449,0.93164253,0.8820144,0.0064086914,0.0021823049,0.0037284195,0.0002207756,0.030569524,0.00030580163
0.9944749,8.940697e-08,6.2584877e-07,5.054474e-05,2.9802322e-07,0.00014159083,0.00034305453,1.5467405e-05,4.801154e-05,0.0003439486
0.009981364,5.5134296e-06,7.364154e-05,5.9992075e-05,0.91836715,0.00023812056,0.018267423,8.931756e-05,0.4984426,0.0013784468
7.212162e-06,0.974544,0.029538542,0.002814144,1.6987324e-06,0.011823088,0.017603636,2.9802322e-07,0.9475224,0.0019252896
0.0060231984,2.631545e-05,1.5705824e-05,2.8818846e-05,1.4066696e-05,0.0003350377,0.0043246746,2.2053719e-05,0.97643805,0.008231193
0.99033165,0.0,9.834766e-07,3.4421682e-05,5.9604645e-08,0.00021883845,0.0002631843,0.0013807118,9.536743e-06,0.00014075637
0.95412755,3.33786e-06,2.9802322e-07,2.861023e-05,1.4007092e-06,1.79708e-05,0.0023049712,6.2584877e-07,0.012457579,0.0031333268
1.7642975e-05,0.0018507242,0.012240142,0.96538657,0.005537778,0.00014585257,0.020697385,2.682209e-07,0.9643172,5.608797e-05
0.2120874,1.6391277e-06,8.761883e-06,0.00012463331,5.930662e-06,9.983778e-05,0.0044457912,4.9322844e-05,0.92303586,0.0018201172
0.0042250752,0.0009809136,0.9953791,0.010972023,0.0018304884,0.00078853965,0.00035965443,0.00012379885,0.008934736,0.00040861964
9.325147e-05,0.31336164,0.81741154,0.004146546,0.000616163,0.00025489926,0.0017759204,1.847744e-06,0.73656714,0.0005570352
0.8583702,1.4305115e-06,2.95043e-06,0.00012239814,7.212162e-06,7.456541e-05,0.0011835098,3.2186508e-06,0.05470565,0.0014801323
0.0006801188,6.854534e-07,0.00051015615,0.00013265014,9.652972e-05,7.05421e-05,0.0027874708,6.490946e-05,0.99204946,3.710389e-05
0.015427291,0.023107171,0.7851556,0.000282377,0.00011911988,0.0020157993,0.003860414,6.136298e-05,0.013739884,0.0015281439
0.00022754073,0.91881293,0.093527436,0.008780152,0.0014616251,0.0074450076,0.0681465,6.645918e-06,0.6564361,0.053751886
0.9628515,7.748604e-07,1.4901161e-07,4.8577785e-06,4.7683716e-07,1.4364719e-05,0.0004785359,2.682209e-07,0.0011191666,0.002711296
0.9940412,3.874302e-07,1.4305115e-06,3.2782555e-05,8.940697e-08,0.00011911988,0.00043275952,6.854534e-06,0.000313282,0.00045117736
0.010155499,0.010360122,0.68580425,0.00012651086,0.00062415004,0.0004453957,0.0009863973,0.004574865,0.7210618,0.0019799173
7.95722e-06,4.142523e-06,0.00012895465,0.9982583,0.0003773272,2.1755695e-05,0.016145468,1.1026859e-06,0.40626225,0.0001333952
0.4688936,7.748604e-07,4.172325e-07,5.3346157e-06,8.940697e-08,2.592802e-05,0.001232028,2.6524067e-06,0.51616466,0.0030299425
0.23963326,0.0,3.400445e-05,7.0631504e-06,4.172325e-07,5.2571297e-05,0.0022090077,0.011746973,0.9194187,0.00025880337
0.00041383505,0.8633318,0.07095134,0.008797616,3.5852194e-05,0.0017850101,0.0022757351,3.5762787e-07,0.25374773,0.22001112
2.259016e-05,9.924173e-06,1.3768673e-05,0.9998674,1.3709068e-06,3.9756298e-05,0.04665655,8.940697e-08,0.003222555,0.00047698617
0.9954829,0.0,6.2584877e-07,1.2695789e-05,5.9604645e-08,0.00019088387,0.00022271276,6.8724155e-05,1.5467405e-05,0.00022825599
0.9933325,8.940697e-08,2.9802322e-07,1.0460615e-05,8.940697e-08,9.289384e-05,0.00037497282,1.2814999e-05,8.749962e-05,0.0008095801
0.997771,0.0,1.7881393e-07,1.1116266e-05,0.0,6.109476e-05,0.00023669004,6.109476e-06,1.5437603e-05,0.00019463897
0.015382767,7.44164e-05,5.2452087e-05,8.34465e-07,8.0406666e-05,5.4478645e-05,0.00022312999,0.0001335442,0.059731573,0.91895044
1.2040138e-05,0.96549505,0.02838391,0.020113558,5.364418e-06,0.0043613017,0.019127905,5.9604645e-08,0.97322905,0.0040243566
1.1503696e-05,0.0011305213,0.010096908,0.0002632439,0.00014027953,0.9964484,0.034019828,0.00048071146,0.38804343,0.00033074617
0.98915505,5.9604645e-08,5.9604645e-08,5.045533e-05,0.0,1.9907951e-05,0.0005835295,2.3841858e-07,0.0013871491,7.197261e-05
0.0004962683,0.31531715,0.1096535,0.00028011203,0.012115777,0.00033661723,0.0597845,3.6120415e-05,0.016728103,0.7146029
0.0277673,0.0007213354,0.0003105104,1.1920929e-07,0.002282232,4.9054623e-05,0.00027167797,0.00018107891,0.0038159788,0.9430243
6.467104e-06,3.668666e-05,0.025396317,0.00085264444,0.91578794,0.00028660893,0.013621539,6.148219e-05,0.9871349,5.5909157e-05
0.0006391406,5.3852797e-05,0.0018340647,2.193451e-05,3.2782555e-06,0.9928746,0.05449912,0.00023835897,0.0018458366,9.098649e-05
0.33569556,9.587407e-05,2.104044e-05,1.3291836e-05,1.7523766e-05,6.3955784e-05,0.00039568543,2.9951334e-05,0.21240094,0.38596967
0.12902,6.809831e-05,4.4614077e-05,0.0,5.325675e-05,1.1444092e-05,2.6732683e-05,1.2785196e-05,0.0014769137,0.96113336
0.00010865927,0.9526323,0.1065602,0.0007197559,1.0311604e-05,0.010863841,0.010994464,4.172325e-07,0.16338238,0.01206094
0.99521935,5.9604645e-08,1.7881393e-06,5.850196e-05,2.9802322e-08,0.00035062432,0.0008877516,0.0001335442,4.2676926e-05,0.00027114153
0.012391984,8.934736e-05,0.00025123358,0.0002167821,7.972121e-05,0.00045490265,0.005270928,3.0577183e-05,0.9730308,0.0015302002
0.0008446276,0.00059503317,0.00021794438,0.013543546,0.0009573102,0.0005353093,0.9169729,0.0024059713,0.7872721,0.005704969
0.99715406,0.0,1.1920929e-07,9.894371e-06,0.0,3.2305717e-05,0.0001720488,2.7120113e-06,3.3676624e-05,0.00026777387
0.00039801002,0.0006496012,0.002676934,0.00024440885,1.8179417e-06,0.9963783,0.012970805,0.00045385957,0.009638339,0.0007789731
0.12100479,0.0010260642,0.9620241,0.0005637109,0.00017291307,0.00076007843,0.00084257126,0.0020547807,0.0030943155,0.0034886599
0.00012722611,1.7881393e-07,9.834766e-07,0.99841,5.364418e-07,4.440546e-06,0.008883178,8.940697e-08,0.020130396,1.2010336e-05
0.07970503,0.00017771125,0.006962687,5.3942204e-06,0.00056886673,0.00039857626,0.0006361902,0.028984189,0.07003611,0.5116454
0.09157714,4.4703484e-07,3.2484531e-06,5.7309866e-05,2.503395e-06,4.7266483e-05,0.0020743012,2.0205975e-05,0.9259708,0.0010991395
0.00030621886,0.002023816,9.4771385e-05,0.00015163422,9.745359e-06,0.0004377663,0.8247106,4.7683716e-07,0.0005197227,0.0009097159
0.00711295,1.4901161e-07,3.746152e-05,4.2319298e-05,2.9325485e-05,6.875396e-05,0.002932936,7.56681e-05,0.98829174,8.684397e-05
0.0014183521,0.05109802,0.00091308355,1.4603138e-06,7.43866e-05,1.1980534e-05,0.00012010336,3.874302e-07,0.061334223,0.9316476
0.9890187,0.0,1.1622906e-06,0.00015687943,1.4603138e-06,0.00025209785,0.00088357925,5.00679e-05,0.0002555251,9.685755e-05
0.014136374,0.009036452,4.7147274e-05,4.5359135e-05,6.556511e-06,8.252263e-05,0.0015317798,3.3080578e-06,0.8837187,0.18932354
0.94561875,5.9604645e-07,1.1920929e-06,2.6524067e-06,1.9669533e-06,4.2766333e-05,0.00038698316,8.3357096e-05,0.032329082,0.02758941
0.21600318,0.00197801,0.9259571,6.0737133e-05,1.32620335e-05,0.00044184923,0.00034847856,0.0005072057,0.0012924075,0.0062099993
0.9059099,1.4901161e-06,5.066395e-07,3.811717e-05,0.001916647,6.1154366e-05,0.0068746507,7.4505806e-06,0.0068103075,0.008530259
0.9929429,8.940697e-08,2.95043e-06,1.5348196e-05,4.7683716e-07,0.0003606379,0.00029921532,0.00012511015,4.172325e-05,0.0009996593
0.036359847,0.00017434359,7.036328e-05,0.040073603,0.048164845,0.0030930936,0.6235069,0.009492189,5.0842762e-05,0.050220847
0.50913674,0.0009036064,0.6099688,2.321601e-05,6.747246e-05,0.0009061992,0.00044506788,0.0033062398,0.0016849041,0.03589672
0.98654884,0.0,2.6524067e-06,3.3974648e-06,0.0,0.00010189414,0.00010898709,0.0031489432,2.5749207e-05,0.00014808774
5.7816505e-06,0.00048151612,0.004887253,0.0005992353,0.00078725815,0.9908724,0.026989073,0.0003710091,0.7792584,0.0003027916
2.104044e-05,1.2218952e-06,0.0002683401,0.9996183,0.00064879656,8.6814165e-05,0.01841855,1.8179417e-06,0.001386404,0.00029283762
0.064970106,1.1533499e-05,8.195639e-06,3.620982e-05,4.5388937e-05,0.00014775991,0.0034018755,5.0246716e-05,0.8908962,0.023728818
0.99236345,1.7881393e-07,2.9802322e-08,7.2717667e-06,0.0,7.8082085e-06,0.00033536553,2.682209e-07,7.69794e-05,0.0013993382
0.007273823,0.0072251856,0.82699555,0.018501997,0.06236306,0.0012650788,0.0036664605,1.770258e-05,0.00784719,0.0025394857
0.0009304285,0.080040574,0.52353245,0.94869584,0.0015392601,0.0036377609,0.0668388,1.0162592e-05,0.020271957,0.0021037757
0.97094154,2.682209e-07,1.4901161e-07,3.427267e-06,8.34465e-07,2.1904707e-05,0.0004169643,2.3245811e-06,0.00079905987,0.0067346096
0.00013422966,0.00042420626,0.042473435,0.0032059252,0.00017181039,0.0036249459,0.002478391,0.007679194,0.98050416,0.0024764538
3.787875e-05,0.002099216,0.00027528405,8.660555e-05,2.503395e-06,0.0017206669,0.97874427,2.5212765e-05,0.0016305447,0.0010035336
0.0012532771,0.19822618,0.3148976,0.0003090799,0.010925859,0.0003785193,0.0021248162,2.6673079e-05,0.36811167,0.07918298
0.0022786558,0.0,6.681681e-05,1.1563301e-05,2.2053719e-06,3.2395124e-05,0.0016947091,0.00016865134,0.99161154,6.6161156e-06
0.0001450181,0.77769375,0.07813758,0.0060019493,0.005170852,0.17061484,0.1511701,0.0001205802,0.33085912,0.03493631
0.00089499354,1.7762184e-05,0.000130862,0.99731654,0.08564088,0.0010046363,0.024946183,4.7683716e-07,2.503395e-05,1.9937754e-05
0.00042116642,0.93758833,0.02421242,0.9964457,0.0011921525,0.0037961602,0.38477445,2.9802322e-08,0.26576665,0.0029069781
0.4365999,2.9802322e-08,0.00010046363,1.50203705e-05,4.917383e-06,8.0019236e-05,0.0019121468,0.10208863,0.6961833,0.00041541457
2.5093555e-05,0.00025489926,0.003947288,0.00022643805,8.076429e-06,0.9970058,0.011261046,8.648634e-05,0.009482563,0.0002053082
0.93986285,5.543232e-06,6.1690807e-06,2.5331974e-05,7.6293945e-06,0.00011882186,0.0013024807,6.181002e-05,0.015398294,0.015871197
0.0005479455,0.65244436,0.4787385,0.107815,0.0017830431,0.96616304,0.025343806,0.0004183948,0.34216332,0.013691127
0.044822305,1.1920929e-07,2.0563602e-06,3.874302e-06,0.0,5.698204e-05,0.0012686253,7.3730946e-05,0.96484166,0.0005697012
4.374981e-05,4.7683716e-07,0.00012269616,0.99657923,0.9507242,0.00068822503,0.05391437,5.5730343e-05,0.00015679002,0.00023007393
0.0049737096,4.4703484e-07,1.424551e-05,4.273653e-05,2.3752451e-05,5.4061413e-05,0.00084903836,7.161498e-05,0.98414457,0.001418978
0.9704535,6.854534e-07,5.9604645e-07,1.3381243e-05,5.096197e-06,3.5762787e-05,0.00039246678,3.4868717e-06,0.0004322827,0.012459099
1.2457371e-05,1.2636185e-05,0.0001552105,0.9992446,0.023501277,8.222461e-05,0.04410696,9.834766e-07,0.15633783,0.00018236041
0.95773387,7.1525574e-07,2.0861626e-07,5.64456e-05,1.2218952e-06,1.3202429e-05,0.0007148683,1.3113022e-06,0.0035487413,0.0033103228
8.431077e-05,4.7683716e-07,1.1622906e-06,0.0,1.5795231e-06,1.1920929e-07,0.0,5.9604645e-08,0.00067839026,0.9989226
0.00016698241,0.010064065,0.00010573864,0.99643356,1.5288591e-05,0.00042006373,0.93478394,2.8312206e-06,0.0013411045,0.018945307
2.938509e-05,0.0027505457,0.038838595,0.023236603,0.00817278,0.9944532,0.015684426,0.00011950731,0.021510303,0.0022081137
0.98462784,1.9669533e-06,4.529953e-06,1.6152859e-05,3.8444996e-06,0.00061795115,0.0010189116,6.0409307e-05,0.000111073256,0.007151097
8.031726e-05,5.9604645e-07,1.1026859e-06,0.0,1.4305115e-06,1.4901161e-07,2.9802322e-08,2.9802322e-08,0.0007157326,0.99889416
0.015033513,1.424551e-05,7.760525e-05,0.0001437664,3.874302e-05,0.00021341443,0.0063913465,6.890297e-05,0.95913637,0.0019073486
0.0037495196,4.172325e-06,1.6510487e-05,0.00016054511,8.8602304e-05,0.00030609965,0.019106537,6.571412e-05,0.9891628,0.00092333555
0.053485245,8.940697e-08,1.0073185e-05,2.682209e-06,3.9041042e-06,3.1858683e-05,0.0005559027,0.0006482303,0.9322318,0.0022058785
0.0002156794,0.013472348,0.00014054775,0.00015208125,4.798174e-06,0.0014384389,0.93322796,1.4603138e-06,0.00033819675,0.00057032704
0.1265463,8.940697e-08,7.390976e-06,2.5242567e-05,4.053116e-06,0.0006212592,0.0068019032,0.830215,0.0024952292,0.012194097
0.20930016,0.16376406,0.39146554,1.5497208e-06,3.2186508e-05,0.00048208237,0.00050747395,2.7000904e-05,0.0022120774,0.07767457
0.012956917,0.0,8.34465e-07,3.0875206e-05,2.3841858e-07,1.2069941e-05,0.00266397,7.2419643e-06,0.9937005,3.093481e-05
1.1891127e-05,0.92599547,0.04203832,4.6253204e-05,1.1861324e-05,0.002133906,0.054641902,4.23193e-06,0.16098556,0.03073275
0.0004964769,0.03731078,0.14034033,0.996127,0.3435487,0.001826793,0.11258635,1.013279e-06,0.5906245,0.00013437867
0.0020328462,0.07321015,0.00029110909,6.2584877e-07,0.00018703938,6.1690807e-06,0.0001783669,1.4901161e-07,0.10970762,0.8762001
0.20465949,0.0,2.6226044e-06,4.014373e-05,3.2782555e-07,4.172325e-05,0.00021398067,0.900681,3.105402e-05,0.0001014173
4.6491623e-06,3.0517578e-05,0.00018155575,0.9993005,0.0067340434,2.9087067e-05,0.06057948,4.7683716e-07,0.56753963,7.5250864e-05
0.5539002,4.172325e-07,7.033348e-06,5.6028366e-06,2.413988e-06,3.2365322e-05,0.0014895499,0.00015231967,0.58631295,0.0030447245
0.99483407,5.9604645e-08,2.9802322e-08,2.2500753e-05,0.0,1.6152859e-05,0.00023806095,2.9802322e-07,8.5920095e-05,8.34167e-05
0.98889154,5.9604645e-08,3.0696392e-06,5.441904e-05,1.4901161e-07,0.0002976358,0.00044333935,0.00017148256,0.0005155802,0.00037422776
0.954592,2.0861626e-07,4.172325e-07,2.1755695e-06,1.2785196e-05,7.292628e-05,0.00038078427,1.707673e-05,0.0018841326,0.008138359
2.4735928e-05,0.21387216,0.48267096,0.04544097,0.3975035,0.53513056,0.053374767,0.00034615397,0.9383374,0.0012561977
0.002667129,0.00010308623,0.0010415018,6.2942505e-05,5.364418e-07,0.99432635,0.009303182,0.0032577813,0.0010728836,0.0004145801
0.9558393,2.1755695e-06,2.3245811e-06,5.146861e-05,1.8239021e-05,0.000113368034,0.0008738935,1.6659498e-05,0.0020913184,0.012313604
0.8780856,1.04010105e-05,1.1533499e-05,2.6166439e-05,0.00039720535,0.00015202165,0.0010203719,6.580353e-05,0.0026287138,0.1640155
0.995715,0.0,7.748604e-07,1.0758638e-05,5.9604645e-08,0.00012296438,0.00028410554,5.531311e-05,3.194809e-05,0.00038269162
7.674098e-05,4.172325e-07,1.3411045e-06,0.0,1.2814999e-06,5.9604645e-08,2.9802322e-08,2.9802322e-08,0.0005117953,0.9988929
0.00025352836,0.4474622,0.33782524,0.0038737655,0.004806936,0.019595832,0.012341946,0.00033316016,0.945362,0.0072719157
0.0040391088,0.05285254,0.8815337,0.002341926,0.00071403384,0.0008749366,0.0017841756,3.2752752e-05,0.049039394,0.0030860603
0.02908358,0.00012913346,9.62019e-05,0.00037288666,4.9322844e-05,0.001154244,0.39186382,0.0015010238,0.9102708,0.003346771
0.0006698668,0.00044870377,0.0012286901,0.014120817,0.7788364,0.5615811,0.3318513,2.3692846e-05,0.04950577,0.00012594461
0.5696848,5.7816505e-06,0.0001244843,1.0043383e-05,1.475215e-05,0.0003837645,0.00044357777,0.0098361075,0.012320459,0.37564597
0.00045752525,2.9802322e-07,3.3080578e-06,0.99600863,2.503395e-06,4.2051077e-05,0.006790668,9.834766e-07,0.0027516782,0.00021249056
2.7507544e-05,0.000798434,0.6840061,0.0055965483,0.4728073,0.0012803674,0.011376172,0.00056406856,0.95458794,0.00030085444
0.9946575,2.9802322e-08,0.0,3.784895e-06,0.0,6.943941e-06,0.00026345253,8.940697e-08,6.2823296e-05,0.0002452135
0.31672037,1.4305115e-06,0.00013124943,7.110834e-05,1.1026859e-06,0.0010370612,0.0007477999,0.19425476,0.13488775,0.028311372
0.90908766,1.5795231e-06,4.172325e-07,5.376339e-05,0.0,2.3663044e-05,0.0015411079,2.0861626e-07,0.06517169,0.00022673607
0.00031530857,1.3142824e-05,9.679794e-05,0.0008341968,0.00013336539,0.00029793382,0.0047857165,1.603365e-05,0.99190474,0.00036337972
0.00011911988,0.86164784,0.028776586,0.025584519,0.00051912665,0.011954695,0.05524066,5.841255e-06,0.9527987,0.013305306
0.983778,3.8146973e-06,8.940697e-07,4.9471855e-06,3.5762787e-07,3.284216e-05,0.00038692355,9.23872e-07,0.00046232343,0.015909076
0.3333151,0.00092947483,0.8510308,0.0012177825,0.00024363399,0.0042682886,0.004972577,0.031189919,0.023920298,0.003123492
0.00010642409,0.0009343922,7.072091e-05,0.9998964,0.001599133,0.00017261505,0.49784458,1.7881393e-07,0.00680086,0.0004916787
0.98385906,0.0,2.1755695e-06,1.13248825e-05,5.9604645e-08,0.00019574165,0.00020733476,0.0035180748,4.6402216e-05,0.00023937225
0.00057190657,0.040895253,0.954844,0.0040675104,0.0178805,0.001259774,0.0016794205,3.59416e-05,0.08290413,0.0046726167
0.0038306713,0.6427587,0.02351579,6.3598156e-05,6.189942e-05,0.004701793,0.033827752,5.942583e-05,0.29218668,0.0617916
0.00015744567,2.5331974e-06,2.3543835e-06,0.0,1.5795231e-06,2.0861626e-07,1.1920929e-07,0.0,0.00216496,0.99832916
0.9881196,1.2516975e-06,2.682209e-06,3.579259e-05,2.3841858e-07,0.00015190244,0.000633806,8.46386e-06,0.00047421455,0.0034255683
0.0029591322,9.393692e-05,0.00062555075,0.00077036023,3.877282e-05,0.9712217,0.02322632,0.0001142025,0.00030133128,0.00016084313
0.00025725365,0.88727343,0.0037495792,0.99541575,1.579523e-05,0.0031410158,0.32794988,0.0,0.46122003,0.0024176836
0.00011360645,0.0049761534,0.012962043,0.0010839701,7.134676e-05,0.99085367,0.061911136,0.00050613284,0.046156675,0.0008646846
0.0019839704,3.2782555e-06,0.26632482,0.0002694428,0.00017276406,0.000112354755,0.0008960664,0.62498623,0.063904375,0.014382273
0.00032302737,1.7881393e-07,0.0011761189,1.758337e-06,2.4288893e-05,4.1902065e-05,0.0008985996,0.049986184,0.9796195,0.0018492639
9.146333e-05,0.9589182,0.023623109,0.00039499998,2.5331974e-06,0.009430975,0.058800817,2.7418137e-06,0.49372387,0.016438454
5.2273273e-05,0.11401433,0.80290604,0.86093533,0.008986682,0.00064340234,0.0074667335,1.6987324e-06,0.93734586,0.00014662743
0.0006401241,1.1920929e-07,0.0005863607,5.00679e-06,4.348159e-05,4.3958426e-05,0.0016364753,0.07806507,0.98389935,0.0015287697
0.00024953485,0.0030793548,0.0027314425,0.99173486,0.4087786,0.23192987,0.25241992,1.5825033e-05,0.00402385,0.0029526055
0.9718021,3.6656857e-06,2.1159649e-05,4.529953e-06,9.536743e-07,0.0002156794,0.00042432547,8.08239e-05,0.0007584989,0.059597373
0.9939859,5.9604645e-08,1.7881393e-07,1.1742115e-05,2.9802322e-07,6.753206e-05,0.00025096536,2.9206276e-06,3.6597252e-05,0.00032913685
0.00022050738,0.018958211,0.16950643,0.0007045269,1.21593475e-05,0.99647677,0.02067396,0.0046711266,0.00978747,0.0042098165
0.15161839,0.0,7.748604e-07,7.0631504e-06,0.0,1.7464161e-05,0.00043046474,0.9586896,1.23381615e-05,2.8818846e-05
1.4573336e-05,0.0019890666,0.009025693,0.0022260845,2.142787e-05,0.9986545,0.0013758838,0.0009224117,0.05211726,0.0033732355
0.0001424253,1.8447638e-05,0.00021648407,0.0001373589,1.809001e-05,0.98868287,0.03346926,1.385808e-05,0.010083258,2.7060509e-05
3.2812357e-05,0.0011023879,0.019685626,0.00043031573,1.5348196e-05,0.99915886,0.008952737,0.0024310648,0.030872524,0.0010396242
0.0031226873,2.0116568e-05,0.0010450482,3.5762787e-06,0.0004771948,4.2825937e-05,0.00034102798,0.009334117,0.4718763,0.43604618
0.0010915995,0.00077933073,0.9805993,0.0038671196,0.0007714331,0.0003132224,0.001385808,0.0013469756,0.03320667,0.00078189373
0.0001821816,0.0,3.516674e-06,0.99677444,5.0365925e-06,3.5464764e-06,0.0028423965,3.2484531e-06,2.9534101e-05,3.117323e-05
0.8316684,3.2305717e-05,1.758337e-06,2.554059e-05,3.3289194e-05,2.4348497e-05,0.002224058,2.5331974e-06,0.052851677,0.07009834
0.995391,2.9802322e-08,5.9604645e-08,1.3560057e-05,5.9604645e-08,4.6372414e-05,0.00024789572,3.1888485e-06,3.7044287e-05,0.0004389286
0.00065517426,0.001838088,0.010915607,0.00017610192,2.0623207e-05,0.9958472,0.022834092,0.01317966,0.15762731,0.0017462373
0.008329958,0.00057554245,0.0005814135,0.0009838343,0.00013774633,0.0032072663,0.8831931,0.036643744,0.3168378,0.002178222
0.0010792613,0.10054904,0.9118768,0.005469531,0.00051385164,0.0032012463,0.0016186833,2.515316e-05,0.26833045,0.00034546852
0.022935927,2.2917986e-05,0.000109791756,0.0003027916,2.4735928e-06,0.94405115,0.012276411,0.00021642447,0.0001771152,0.0002065897
0.8819996,1.5497208e-06,2.682209e-06,4.708767e-06,0.00012481213,7.626414e-05,0.00067797303,8.225441e-05,0.0062690675,0.09425801
0.026067197,0.00060144067,0.00015071034,1.4901161e-07,0.0002360344,1.0639429e-05,3.6805868e-05,6.2584877e-06,0.00674212,0.98216486
9.3758106e-05,0.013658643,0.028929502,0.001482755,0.0009867549,0.9677322,0.06923962,0.0024877787,0.71333873,0.0019692183
0.9588609,5.185604e-06,6.467104e-06,0.00014534593,0.00042793155,0.00026866794,0.0039865077,5.8978796e-05,0.0008972585,0.012633234
5.4508448e-05,6.490946e-05,0.0018694699,4.9829483e-05,2.8014183e-06,0.99396944,0.011677414,0.00069633126,0.06761485,0.00047269464
0.99457884,0.0,2.0861626e-07,2.8282404e-05,8.940697e-08,0.00015690923,0.00028961897,0.0002464354,4.172325e-06,0.00015315413
0.049749464,1.1920929e-07,3.5762787e-07,1.5437603e-05,5.9604645e-08,1.9669533e-05,0.0019863248,5.722046e-06,0.9592416,0.0006724
0.00075408816,0.08350089,0.6306982,0.04943025,0.006782204,0.84080887,0.014274955,0.00036016107,0.08945069,0.0022258759
0.9224052,7.748604e-07,9.059906e-06,9.0032816e-05,2.7120113e-06,0.00015193224,0.00069859624,5.4717064e-05,0.031604618,0.001870811
0.002946943,0.055999458,0.0012061,0.99179435,0.011470646,0.0042342544,0.81256014,5.453825e-06,0.0015490949,0.011013031
0.97781396,2.9802322e-08,2.9802322e-07,2.1725893e-05,5.9604645e-08,3.6388636e-05,0.00024446845,3.784895e-06,0.0013278127,0.00029852986
3.46601e-05,3.0100346e-06,4.3153763e-05,0.99934757,9.715557e-06,4.0084124e-05,0.0094432235,2.0861626e-07,0.014919132,0.00014767051
0.7313695,1.1920929e-07,4.172325e-07,1.1593103e-05,5.9604645e-08,4.273653e-05,0.0010696352,2.9802322e-07,0.16308466,0.000108122826
0.000356853,2.899766e-05,0.00209561,5.8442354e-05,0.00030732155,4.4435263e-05,0.001240313,0.000605613,0.9492829,0.020350546
0.000106453896,0.0038788915,0.029796869,0.0006864071,2.3305416e-05,0.9977999,0.014384627,0.0006144941,0.047120035,0.0005452037
0.00021284819,1.1920929e-07,0.00030583143,0.96416175,0.0009073317,0.00012165308,0.0067293644,0.0006470084,0.0007548928,0.001627475
0.9616959,9.23872e-07,3.0100346e-06,0.0002156198,1.5079975e-05,0.00016260147,0.0012448132,1.2308359e-05,0.0027377903,0.002609551
0.00095298886,1.1920929e-07,2.0772219e-05,2.9742718e-05,4.798174e-06,6.687641e-05,0.0005976856,7.280707e-05,0.9940343,0.00012910366
0.12187162,0.00035718083,0.94845974,0.00058862567,0.00010883808,0.0022129714,0.0021665096,0.024880022,0.015900105,0.0011285543
0.007843763,0.8250121,0.06005019,0.0002630651,2.6464462e-05,0.0016846359,0.016757578,8.34465e-07,0.027892292,0.03917089
0.9744042,5.9604645e-07,2.861023e-06,0.00010806322,5.662441e-07,0.00017383695,0.0006482303,1.0967255e-05,0.0035086572,0.0008198619
0.004442185,4.172325e-07,3.3706427e-05,3.373623e-05,7.7188015e-06,7.2568655e-05,0.00088071823,5.4091215e-05,0.9866066,0.00023293495
0.5526365,1.1026859e-06,9.804964e-06,1.603365e-05,6.210804e-05,9.1552734e-05,0.0042906106,7.8856945e-05,0.47941837,0.0032308996
0.0001912415,0.77195,0.5479633,0.9520117,0.05022949,0.0036265254,0.048327148,1.3411045e-06,0.8854363,0.0027199388
0.028208554,8.940697e-08,1.1831522e-05,1.1622906e-05,4.172325e-07,2.6077032e-05,0.0007741153,0.00018522143,0.9669095,0.0002387464
0.93489885,5.364418e-07,4.172325e-07,1.6719103e-05,2.7179718e-05,6.219745e-05,0.0011954606,1.4901161e-06,0.0027967393,0.0034242272
0.9960799,0.0,2.9802322e-07,1.21593475e-05,0.0,7.4863434e-05,0.00015670061,0.00038814545,5.155802e-06,2.604723e-05
0.03829229,0.000102609396,1.5497208e-06,0.00015971065,5.9604645e-08,0.0011770725,0.8861749,1.3709068e-06,0.00021225214,3.2275915e-05
0.7672515,2.4437904e-06,1.8179417e-06,2.6851892e-05,3.5762787e-07,3.6001205e-05,0.0015319288,3.0696392e-06,0.26334536,0.0024955273
0.45218125,1.2844801e-05,8.46386e-06,3.2305717e-05,3.1888485e-06,6.595254e-05,0.0025274754,2.7239323e-05,0.6800601,0.013196439
0.013172299,0.0,8.34465e-07,1.04010105e-05,2.0861626e-06,1.9609928e-05,0.0012718141,3.296137e-05,0.9879167,0.00034573674
0.62372035,2.9802322e-07,6.6906214e-05,9.575486e-05,0.00016111135,0.00191468,0.0073808134,0.62707126,0.001670599,0.028937727
1.5497208e-05,5.9515238e-05,0.02854374,0.00045859814,0.00010204315,0.0001206398,0.0014682114,3.72231e-05,0.9950707,0.0001962781
3.1739473e-05,1.3589859e-05,0.00027406216,0.99913204,0.99418235,0.00024807453,0.10866737,1.1205673e-05,0.013706386,3.2812357e-05
0.8277378,1.3411045e-06,3.0100346e-06,2.0861626e-06,0.0019418597,0.0001949668,0.0011004508,5.8710575e-06,0.0030762255,0.026279569
0.4359194,6.645918e-06,9.387732e-06,1.0848045e-05,1.2278557e-05,6.842613e-05,0.0012798011,6.017089e-05,0.5374796,0.040305316
0.67873955,0.0,2.6673079e-05,4.673004e-05,5.066395e-07,5.492568e-05,0.002438128,0.0016996264,0.59403825,3.3289194e-05
0.00065392256,0.011620253,0.00013175607,0.0037816167,5.155802e-06,0.00084608793,0.974262,7.164478e-05,0.06412026,0.0009563565
0.008860409,0.0,0.00018170476,4.8577785e-06,7.95722e-06,8.866191e-05,0.006891638,0.92973584,0.014176875,0.000715971
0.00016796589,5.0365925e-06,0.00040194392,0.9952278,0.00078096986,0.0025493503,0.02995646,1.9788742e-05,0.0004299879,0.004701823
0.00052165985,0.00017762184,0.00018110871,0.00010120869,0.0003694892,0.64626795,0.76770294,0.00012585521,0.03814903,0.000121980906
0.0002834499,0.038079113,0.11413142,0.032844365,0.6877846,0.095071554,0.46417624,0.0018538237,0.81398153,0.0063123703
0.0010995567,0.005620599,0.9742023,0.00034308434,0.00069871545,0.00026851892,0.00097596645,0.0003900528,0.21566793,0.00047785044
0.00026521087,2.9802322e-08,2.7805567e-05,5.3942204e-06,5.185604e-06,1.9788742e-05,0.00040957332,0.00031030178,0.9958672,0.0005309582
0.99123704,2.9802322e-08,1.4603138e-06,7.233024e-05,2.0861626e-07,0.00023955107,0.00045266747,8.33869e-05,0.00017678738,0.0003117025
0.96834934,2.0861626e-07,9.089708e-06,1.1920929e-05,1.5079975e-05,0.00069233775,0.00069093704,0.00071009994,0.00031802058,0.005063981
0.01577714,0.0,4.172325e-07,0.99262595,2.592802e-06,5.00679e-05,0.0016695559,3.9041042e-06,6.28829e-06,1.3589859e-05
9.1433525e-05,0.0,3.7550926e-06,0.99862957,0.00023210049,2.8908253e-06,0.0025800765,2.3543835e-06,3.516674e-05,6.3180923e-06
0.009776652,2.9802322e-08,3.9458275e-05,5.155802e-06,5.9604645e-08,0.0002606213,0.0023282468,0.0030201077,0.984668,2.643466e-05
0.9697882,1.3411045e-06,1.013279e-06,5.7011843e-05,4.3213367e-06,5.492568e-05,0.00045526028,1.9073486e-06,0.0011270642,0.006578028
0.98321986,5.662441e-07,4.4703484e-06,7.83205e-05,5.9604645e-07,0.00038462877,0.0011091232,4.220009e-05,0.0009382069,0.0012261868
0.013428748,0.0040047467,4.711747e-05,0.00017854571,2.9802322e-08,0.0048415065,0.5503007,7.987022e-06,0.011868596,0.0014354885
0.00037673116,0.1155695,0.0039159954,0.00012871623,7.253885e-05,0.0002964437,0.60580873,7.620454e-05,0.0010999441,0.07544282
0.88329613,1.0728836e-06,2.0861626e-06,1.1920929e-05,5.9604645e-08,4.836917e-05,0.0016277134,1.7344952e-05,0.16507575,0.0013341904
0.0044650733,0.0014930367,5.8084726e-05,0.0011601746,7.6293945e-06,0.00079908967,0.8889084,5.4240227e-06,0.0027462542,0.00067302585
0.0006185174,7.033348e-06,0.0051909685,2.527237e-05,0.004646957,8.6158514e-05,0.0042980015,0.011170924,0.92724967,0.010721356
0.057084978,2.9802322e-08,0.00013139844,7.352233e-05,1.0550022e-05,5.5879354e-05,0.0028535724,0.0024838746,0.9621167,6.958842e-05
0.001534462,1.8775463e-06,6.070733e-05,0.00024214387,6.508827e-05,0.000108629465,0.0016349256,6.4998865e-05,0.99051005,0.00061288476
1.0788441e-05,0.96964395,0.047528207,0.021960318,1.1712313e-05,0.007438332,0.020904422,1.4901161e-07,0.9684169,0.0033369958
0.0074925125,3.7252903e-06,9.000301e-06,7.033348e-05,2.989173e-05,0.00014141202,0.0030590296,3.0755997e-05,0.9792266,0.005094588
0.0013155043,0.012224019,0.9439155,7.030368e-05,0.00040632486,0.0003299117,0.00065150857,0.0001976788,0.17728642,0.000878036
0.0010456741,0.8715223,0.060210675,0.023340374,0.00028648973,0.0013915598,0.019186318,3.874302e-07,0.21185175,0.043417722
0.058878392,8.6426735e-07,6.735325e-06,4.0620565e-05,7.1525574e-07,5.6803226e-05,0.0021223426,2.3841858e-05,0.9304192,0.0009877384
2.4706125e-05,0.8693063,0.0018913448,0.00081571937,6.556511e-07,0.0007454455,0.0073738396,5.9604645e-08,0.9397056,0.014184713
0.00063091516,0.78763986,0.007204473,0.0010911524,7.349253e-05,0.00054740906,0.006340891,1.4305115e-06,0.77624387,0.15403739
0.0040025115,0.1664576,0.111765325,7.7694654e-05,0.004491627,0.00048476458,0.0026856065,2.4408102e-05,0.026241928,0.6717435
2.887845e-05,0.001434803,0.01854828,0.00017997622,2.8908253e-06,0.99830747,0.011587143,0.0009343326,0.014023483,0.0011271238
0.00045785308,0.46149325,0.088187784,0.0017907321,0.0014916062,0.007410407,0.6139578,0.0004310608,0.0060794353,0.06544536
0.0003336966,0.046579957,0.976315,0.0063293874,0.0005464852,0.0003886521,0.00039887428,6.7949295e-06,0.46139467,7.292628e-05
0.032122225,4.87864e-05,7.44462e-05,0.0,0.000105947256,5.00679e-06,4.827976e-06,3.0696392e-06,0.0007452369,0.9892071
7.644296e-05,0.014364213,0.0081906915,0.8367414,0.22769642,0.98506236,0.022849202,5.2571297e-05,0.034914434,0.0033563077
0.66010904,6.7055225e-06,6.7055225e-06,0.00011882186,0.0007022023,7.849932e-05,0.0034950078,8.136034e-06,0.13785395,0.010094494
0.000108242035,0.031170994,0.0018293262,0.99483967,0.0010526478,0.06784773,0.16137013,4.172325e-07,0.4293601,0.0007880926
0.009450644,0.0,1.7285347e-06,0.000105947256,2.771616e-06,6.943941e-06,0.00021445751,0.9928907,3.0964613e-05,0.0001359582
0.5137515,1.4007092e-06,0.0008133352,0.00015106797,2.3841858e-06,0.0004093945,0.011953205,0.58788645,0.11460203,0.0013474822
0.9409437,8.583069e-06,0.0008357465,0.00013172626,7.2717667e-06,0.0028931797,0.0033294559,0.0027780533,0.0012377203,0.0024840534
0.94451445,3.4868717e-06,1.4305115e-06,2.5123358e-05,1.7881393e-06,5.5104494e-05,0.0005635619,1.0430813e-06,0.005971521,0.0048690736
7.674098e-05,4.172325e-07,1.3411045e-06,0.0,1.2814999e-06,5.9604645e-08,2.9802322e-08,2.9802322e-08,0.0005117953,0.9988929
0.016810924,7.748604e-06,7.4505806e-06,4.49121e-05,7.748604e-07,0.0012399256,0.7664926,0.0014537871,0.0086477995,0.00011339784
0.0016116798,1.9907951e-05,0.00019869208,0.00039178133,0.0032888055,0.0006118417,0.01780948,0.0004143119,0.98184705,0.002443701
2.810359e-05,1.41859055e-05,0.001960218,0.9902754,0.03779283,0.000495404,0.02957949,2.4139881e-05,0.0063297153,0.0061626732
0.0397256,7.390976e-06,8.8751316e-05,1.168251e-05,0.0014416277,0.00013306737,0.0028473139,0.0014342666,0.87778956,0.036045134
0.0015607476,0.2721329,0.010035157,0.9926075,0.051738173,0.0034843683,0.4476446,2.0861626e-07,0.5701773,0.003084302
0.000505805,1.7881393e-07,0.00012293458,4.386902e-05,1.1622906e-05,5.8054924e-05,0.0014415383,8.890033e-05,0.9951849,2.297759e-05
0.9882543,1.1920929e-07,2.9802322e-08,7.4505806e-06,2.9802322e-08,1.180172e-05,0.00030350685,6.2584877e-07,0.0003155172,0.0013673604
0.0025298595,0.0007016957,8.7589025e-05,7.754564e-05,5.364418e-06,0.00221923,0.82312816,3.886223e-05,0.00036597252,0.0006121695
0.98012745,2.0861626e-07,1.6212463e-05,1.1861324e-05,1.0728836e-06,0.0006865263,0.00044167042,0.0036389828,0.0002593696,0.006174296
0.00013172626,0.06854352,0.030807972,0.951671,0.7633791,0.97015023,0.08410603,7.2717667e-06,0.043086022,0.000870198
0.34396222,0.002047956,0.49667335,0.0053515434,0.003671825,0.00866431,0.0053822994,0.1452372,0.09740794,0.033649772
0.00010699034,1.1920929e-07,0.00048181415,0.9948292,9.3758106e-05,0.0003836751,0.0013786256,2.4527311e-05,0.00038194656,0.00013694167
0.13291305,3.08156e-05,3.0696392e-06,7.18832e-05,1.7881393e-07,0.0035363138,0.63681847,0.0006402731,0.0007787347,0.00012356043
0.0051317513,0.0,1.1026859e-06,3.835559e-05,5.662441e-07,2.682209e-06,0.00020229816,0.9964374,1.7553568e-05,1.5586615e-05
6.8843365e-06,3.963709e-06,0.00018134713,0.9991323,0.00021082163,1.513958e-05,0.013551474,1.2516975e-06,0.19556785,0.0001487732
1.937151e-05,0.95970917,0.012778163,2.5600195e-05,1.7881393e-07,0.0030716062,0.008283615,2.0861626e-07,0.6416382,0.0069318116
0.00016766787,2.115965e-06,5.990267e-06,0.0,3.427267e-06,1.6987324e-06,1.4901161e-07,3.5762787e-07,0.0010910332,0.998602
0.00021496415,4.3809414e-06,5.990267e-06,0.0,4.440546e-06,4.7683716e-07,4.7683716e-07,4.4703484e-07,0.005854577,0.9964601
0.5531471,4.7683716e-07,7.4505806e-06,6.8724155e-05,1.6093254e-06,6.741285e-05,0.003756851,2.4944544e-05,0.65678054,0.00028163195
5.504489e-05,0.00015604496,0.0014822185,9.995699e-05,4.3809414e-06,0.9955751,0.016905308,8.4489584e-05,0.01782158,0.0001552105
8.2701445e-05,5.751848e-06,5.3167343e-05,0.9943689,0.9992049,0.0013325512,0.033661783,1.0937452e-05,0.0044353902,8.648634e-05
0.03656447,0.0,3.5762787e-07,4.6491623e-06,8.940697e-08,6.9737434e-06,0.0002822876,0.9859436,1.1771917e-05,1.847744e-05
0.015838176,5.9604645e-08,3.0696392e-06,1.6093254e-05,6.142259e-05,5.6624413e-05,0.0016466081,0.00026246905,0.9813437,0.002206266
0.99470043,2.9802322e-08,6.556511e-07,2.3305416e-05,2.9802322e-08,0.00019088387,0.0003298223,0.00016668439,3.093481e-05,0.0002784729
0.0045344234,0.0,1.6629696e-05,0.0011075139,1.6719103e-05,2.232194e-05,0.00040268898,0.98811305,0.002358675,0.001079768
0.0008455515,0.0008304417,0.9889855,0.014307529,0.001144141,0.00045681,0.0007375777,0.00021508336,0.108165205,0.00010338426
0.0016988218,2.9802322e-08,4.5388937e-05,2.1159649e-05,5.108118e-05,3.5971403e-05,0.00075906515,0.00027906895,0.9940804,6.3955784e-05
0.0030437708,0.01498279,0.00013649464,0.0038085282,1.1324883e-06,0.0018416345,0.96399665,6.5505505e-05,0.13079146,0.001514703
0.10259798,3.5762787e-07,2.1249056e-05,1.630187e-05,2.682209e-06,0.000101178885,0.0022731423,0.0014299154,0.9245852,0.0032720268
0.0001218915,0.00019359589,0.007532835,0.00011396408,1.6123056e-05,0.99853456,0.011528641,0.035779804,0.0046584904,0.0028119385
0.69151115,8.940697e-08,3.027916e-05,7.688999e-06,1.6093254e-05,0.00033199787,0.00050893426,0.12403387,0.04008788,0.016340107
0.9462726,5.9604645e-08,4.4882298e-05,1.0251999e-05,1.2218952e-06,0.0005455315,0.00044220686,0.022222906,0.0011739433,0.0033768415
0.00084117055,0.090334415,0.0010948777,0.00020849705,8.288026e-05,0.00022488832,0.0011884868,2.5331974e-06,0.9245016,0.19313404
0.001352042,0.00010496378,1.013279e-06,0.0001450479,0.0,0.0003989935,0.9822387,1.3709068e-06,7.0631504e-05,3.245473e-05
0.9932668,1.4901161e-07,7.748604e-07,2.2649765e-06,4.7683716e-07,0.00017511845,0.00022998452,1.6570091e-05,7.522106e-05,0.002529472
9.775162e-06,8.940697e-08,1.7046928e-05,0.9998156,7.5399876e-06,4.976988e-06,0.0030348003,1.1920929e-07,0.0041843355,1.0609627e-05
0.0026081502,0.0,4.7683716e-07,3.5136938e-05,2.3841858e-07,4.5001507e-06,0.00010308623,0.9941749,2.0861626e-05,5.2303076e-05
0.00028139353,4.9889088e-05,0.00026667118,0.00021767616,3.5762787e-07,0.00020858645,0.008626431,2.2947788e-06,0.9915509,4.416704e-05
0.044633806,0.0012221336,4.801154e-05,3.6358833e-06,6.645918e-06,0.00064089894,0.002135694,5.5283308e-05,0.7056707,0.11651647
7.18832e-05,0.0,3.2782555e-07,6.645918e-06,1.1920929e-07,1.9669533e-06,0.00016981363,0.9990544,2.2023916e-05,2.18153e-05
0.0012004673,0.017968208,0.001940608,0.004823774,4.4703484e-05,0.002374053,0.93138903,0.00055256486,0.03080073,0.009680927
0.0041546226,1.1920929e-07,6.175041e-05,4.2140484e-05,1.7881393e-06,3.2901764e-05,0.0025701225,8.627772e-05,0.99163705,4.0471554e-05
8.893013e-05,2.2947788e-06,6.2584877e-07,0.0,8.34465e-07,1.1920929e-07,0.0,0.0,0.0033387542,0.999089
0.00012096763,0.52058244,0.009365946,0.000718981,0.0007548928,0.0009908974,0.009911358,1.1622906e-06,0.8231262,0.08725783
0.0041534603,1.1920929e-07,7.164478e-05,9.387732e-06,5.5402517e-05,8.46982e-05,0.002352655,0.0091462135,0.98651135,0.0013511777
0.00016021729,0.00018292665,0.0015999079,0.0009596646,2.9176474e-05,0.98813653,0.02924022,9.000301e-06,0.0011747777,9.498e-05
0.9969904,0.0,8.940697e-08,5.3942204e-06,0.0,1.1712313e-05,0.00017052889,6.854534e-07,1.4126301e-05,0.000351727
0.99205226,5.9604645e-08,7.4505806e-07,4.1127205e-05,0.0,7.468462e-05,0.0004990399,1.0758638e-05,0.0020883977,0.00011727214
0.9944947,0.0,4.7683716e-07,3.6656857e-06,0.0,7.775426e-05,0.00014588237,0.00013959408,7.516146e-05,0.0005925
0.98137724,0.0,5.2154064e-06,4.4882298e-05,3.5762787e-07,0.00035512447,0.00088727474,0.0044388175,0.00017824769,7.992983e-05
0.0001693368,5.662441e-07,0.0001578629,0.00014299154,0.00014033914,0.00017440319,0.002457291,4.8190355e-05,0.99657786,2.130866e-05
0.99377435,2.3841858e-07,2.8908253e-06,1.2546778e-05,0.0,0.00020033121,0.00041127205,5.057454e-05,0.0005939603,0.0006580353
0.007728398,0.00046643615,0.0043567717,0.0021936595,1.8715858e-05,0.9912987,0.007869959,0.0036589801,0.00083211064,0.0059933662
0.27328032,3.3080578e-06,3.874302e-07,4.4584274e-05,0.0,3.3408403e-05,0.0024296343,9.23872e-07,0.81407624,0.0016088486
0.71133757,0.0,2.95043e-06,1.3709068e-05,3.33786e-06,0.00021612644,0.000770241,0.5048084,0.00013184547,0.00059098005
0.045511425,0.66012895,0.13787627,6.109476e-06,8.606911e-05,0.0006135702,0.004185766,8.165836e-06,0.006860316,0.15780404
6.854534e-05,0.94354343,0.10523048,0.0005206764,9.351969e-05,0.011128455,0.038883865,5.841255e-06,0.4060898,0.031403303
0.9973731,0.0,1.1920929e-07,1.3679266e-05,0.0,8.2820654e-05,0.00023820996,1.0430813e-05,1.0162592e-05,0.00018596649
7.805228e-05,0.006951928,0.009530336,0.010515928,0.0018496811,0.99399424,0.0272457,0.00046294928,0.3282926,0.00073358417
0.99705034,2.9802322e-08,0.0,9.208918e-06,0.0,1.54078e-05,0.00029560924,4.7683716e-07,4.3421984e-05,0.00014993548
3.8206577e-05,1.1920929e-05,0.0015569627,0.9942324,0.23329404,0.00013297796,0.022801429,1.9669533e-05,0.22730038,0.00034451485
0.0018838048,6.258488e-05,4.2438507e-05,1.9162893e-05,0.00025886297,0.0001128912,0.0005661845,8.106232e-05,0.95188975,0.1205931
0.99126494,0.0,1.5199184e-06,1.8775463e-06,0.0,0.00011190772,0.00011622906,0.0011985302,6.6667795e-05,0.0007969141
0.006532252,3.5762787e-07,1.4692545e-05,1.6629696e-05,5.0663948e-05,9.819865e-05,0.0016308427,0.0001731515,0.98372126,0.0015050173
0.9974695,0.0,5.9604645e-08,1.7613173e-05,0.0,2.0593405e-05,0.00027757883,8.940697e-07,5.2124262e-05,0.00023585558
5.1230192e-05,0.010133952,0.006491035,0.0036005378,0.016110271,0.0013850033,0.0137865245,1.1503696e-05,0.9827321,0.002830565
2.2351742e-05,8.4102154e-05,3.5315752e-05,0.99324614,5.3346157e-06,4.7773123e-05,0.063275486,2.3841858e-07,0.4990164,0.00022038817
0.9788996,7.4505806e-07,8.046627e-07,1.3560057e-05,1.2218952e-06,4.7683716e-05,0.00047186017,1.0788441e-05,0.0004581809,0.008854628
0.011612773,8.34465e-07,1.4781952e-05,3.9815903e-05,2.9414892e-05,0.0001219511,0.0020116866,5.760789e-05,0.9740221,0.0013035238
4.348159e-05,0.00051650405,0.0027006269,0.00036087632,3.2484531e-06,0.99788505,0.011308491,4.5001507e-05,0.004110217,9.9509954e-05
0.5301922,1.3411045e-05,1.4603138e-05,0.00026717782,5.096197e-06,0.00014209747,0.0064910054,7.7188015e-06,0.6000393,0.001429528
0.015624136,0.00012353063,7.2717667e-06,4.1484833e-05,3.0100346e-06,0.00017440319,0.0032157302,7.0631504e-06,0.939931,0.045873433
0.022275388,8.940697e-08,3.5762787e-07,0.9876127,4.172325e-07,8.171797e-05,0.0056696534,3.606081e-06,7.471442e-05,0.00028535724
0.9489477,0.0,1.2606382e-05,2.026558e-05,2.413988e-06,0.00018331409,0.0006143749,0.0011512339,0.0059595704,0.00033935905
0.00016987324,1.8179417e-06,0.00027164817,0.9957308,0.0029904842,0.00011628866,0.1592187,0.0001874268,0.00048816204,0.006119877
1.4126301e-05,2.5451183e-05,0.00017532706,0.9986255,0.00040104985,5.5879354e-05,0.028615475,8.34465e-07,0.2507276,0.00033703446
0.00087976456,1.66893e-06,1.32620335e-05,1.1920929e-06,6.2584877e-07,0.0011379421,0.2987501,0.20732197,0.00027769804,0.008331716
0.0005737841,8.136034e-06,9.536743e-06,0.0,9.536743e-06,1.2516975e-06,3.4570694e-06,6.377697e-06,0.020340592,0.99072057
4.0501356e-05,2.1457672e-06,0.00011500716,0.99906886,0.011278629,5.8203936e-05,0.011791587,1.2218952e-06,0.011298388,9.223819e-05
0.09286904,6.7949295e-06,6.6161156e-06,0.00014472008,6.467104e-06,7.516146e-05,0.0041338205,8.940697e-06,0.881481,0.003255099
5.7041645e-05,0.9658359,0.07315922,0.5528945,0.00010064244,0.006623149,0.06287795,5.9604645e-08,0.9346645,0.01022318
2.4914742e-05,3.5762787e-07,5.3942204e-05,0.99952054,0.09726277,4.7445297e-05,0.008610874,1.4603138e-06,0.0016273856,2.5510788e-05
0.0010932982,5.0902367e-05,3.695488e-06,2.9802322e-08,8.85129e-06,8.34465e-07,1.8179417e-06,6.556511e-07,0.060766786,0.99408495
4.2796135e-05,0.0,0.0023493469,0.9835727,0.00029060245,1.31726265e-05,0.0026494265,0.00086441636,0.0005529523,9.378791e-05
0.00023263693,0.0031743944,1.3560057e-05,0.006309092,5.9604645e-08,0.0009826124,0.93164855,3.6269426e-05,0.75098383,0.0017927885
0.0050874352,0.002789557,0.9502804,0.0004005134,0.0019659996,0.00053063035,0.0016895533,0.0005482435,0.042737007,0.0017461181
0.9913272,5.9604645e-08,1.1622906e-06,6.556511e-06,5.9604645e-08,0.00014308095,0.00016835332,0.0002629161,0.00013396144,0.0012369752
0.29634666,5.349517e-05,5.7816505e-06,3.3974648e-05,4.7683716e-07,7.972121e-05,0.0021210313,1.3768673e-05,0.6459975,0.030747265
0.00022238493,0.00039964914,0.006641388,0.0004593134,3.963709e-06,0.99465287,0.007112503,0.0026747286,0.0023123324,0.001788944
7.966161e-05,4.172325e-07,1.3113022e-06,0.0,1.2516975e-06,8.940697e-08,8.940697e-08,0.0,0.00050351024,0.9989
0.9955641,0.0,8.940697e-08,2.6226044e-06,0.0,2.0384789e-05,0.00011640787,1.0341406e-05,2.8818846e-05,0.00063318014
0.0072305202,2.9802322e-08,2.2947788e-06,3.1650066e-05,4.7683716e-07,3.1083822e-05,0.0016100705,2.2619963e-05,0.99231625,0.00012549758
0.89928806,3.695488e-06,1.1026859e-06,7.8856945e-05,0.00012537837,6.7293644e-05,0.0011309087,4.5001507e-06,0.004225105,0.016925007
0.91388243,3.5762787e-07,2.4735928e-06,4.479289e-05,1.4901161e-07,8.752942e-05,0.0009575486,1.5079975e-05,0.062271655,0.00046789646
0.0019049346,0.007489592,7.95722e-06,0.0014109015,2.0861626e-07,0.0006609857,0.98813236,3.963709e-06,0.021518946,0.00013530254
0.31002867,0.00056791306,0.78331065,0.0011366904,0.0003233552,0.0032818317,0.00158602,0.03067103,0.0066278577,0.020553678
0.9780935,5.364418e-07,7.897615e-06,3.7431717e-05,1.5586615e-05,0.0002925098,0.00057792664,0.00011792779,0.00016340613,0.003825277
0.006828636,0.007201761,0.00071424246,1.7881393e-07,0.008278221,2.592802e-05,0.00018954277,3.1143427e-05,0.016746312,0.96525025
5.4210424e-05,0.92550015,0.014565408,0.00016888976,2.4825335e-05,0.00043949485,0.019310713,6.854534e-07,0.50926244,0.13859335
0.95180696,5.722046e-06,1.9103289e-05,6.854534e-06,5.1498413e-05,0.00024035573,0.00060403347,7.805228e-05,0.00036120415,0.058761805
8.5800886e-05,0.0006121099,0.0027899444,0.99705434,0.25369,0.00012516975,0.09548798,1.4901161e-07,0.837092,3.5375357e-05
0.030730397,0.008581668,0.72481024,0.00011506677,0.005514413,0.000592649,0.0016204715,0.00021719933,0.027147204,0.011958808
0.02120325,2.9802322e-07,3.412366e-05,4.61936e-06,1.8566847e-05,0.00010338426,0.0012000799,0.0016870797,0.9517966,0.0064103603
5.301833e-05,0.9313924,0.29304165,0.6593703,0.001437366,0.0032060146,0.020890862,2.682209e-07,0.9330406,0.0054676235
0.7385849,0.0,2.926588e-05,8.106232e-05,1.1622906e-05,0.00028458238,0.0006889701,0.49250302,0.000546813,0.0010249019
0.0001938641,0.0023992658,0.9366441,0.0009472072,0.00032663345,0.00037434697,0.0007379949,0.0008662045,0.90796185,9.2715025e-05
0.9558054,5.7816505e-06,2.9802322e-07,1.4543533e-05,2.8908253e-06,1.4960766e-05,0.00096717477,2.0861626e-07,0.0027415156,0.006376058
4.8190355e-05,0.04477784,0.0073029697,0.97845304,0.0015655458,0.0014798641,0.13174069,1.1920929e-07,0.9676599,0.00028055906
7.1674585e-05,5.3226948e-05,0.000102728605,0.99983776,4.9740076e-05,0.0006417036,0.054145306,5.9604645e-08,0.00058332086,0.0008878112
0.0029301345,0.00021272898,1.9520521e-05,0.00012654066,3.4570694e-06,0.000443846,0.0051091313,5.3346157e-06,0.97703797,0.020490974
0.0019008517,0.6899899,0.1598571,0.99813807,0.80205065,0.7023227,0.24518013,3.874302e-07,0.12463084,0.00041025877
0.9828727,5.9604645e-08,1.1026859e-06,4.222989e-05,1.6987324e-06,9.36687e-05,0.0005643368,4.3958426e-05,0.000713706,0.0003964603
2.9832125e-05,0.9626895,0.035117,0.00076565146,2.3245811e-05,0.0021197498,0.011278868,4.7683716e-07,0.8219434,0.029113412
0.9983114,0.0,0.0,4.1127205e-06,0.0,4.976988e-06,0.00018686056,1.1920929e-07,7.95722e-06,7.981062e-05
0.0028149784,2.9802322e-08,8.884072e-05,9.924173e-06,9.298325e-06,4.2289495e-05,0.0005840957,0.001954317,0.99037826,0.00014927983
0.0018276274,0.016446024,0.001570642,8.752942e-05,0.0010530055,0.00015807152,0.00082972646,1.3232231e-05,0.7946444,0.4519224
0.00013035536,0.9592234,0.041106135,0.39624608,5.5491924e-05,0.0027133524,0.04129544,3.5762787e-07,0.8774973,0.040176958
0.2792412,0.0,1.6152859e-05,3.993511e-06,6.1690807e-06,2.1398067e-05,0.0017103553,0.0054394603,0.8726417,0.00013655424
1.5437603e-05,0.0010596812,0.010033816,0.0052653253,4.887581e-05,0.9980531,0.0066054165,6.28531e-05,0.016462505,0.00049188733
0.9628718,0.0,1.1026859e-06,5.0365925e-06,3.874302e-07,0.00019976497,0.00013807416,0.011267245,3.567338e-05,0.0009901524
0.00044217706,0.0,8.645654e-05,2.413988e-06,1.1920929e-06,1.6123056e-05,0.00014057755,0.8646063,0.9863396,5.9604645e-06
2.2679567e-05,0.954819,0.03582734,0.008639127,3.620982e-05,0.0031934977,0.028055578,6.854534e-07,0.9234903,0.022945762
0.98927534,1.8775463e-06,1.5944242e-05,8.583069e-06,1.1622906e-06,0.00028130412,0.00040468574,5.2064657e-05,0.00018966198,0.0055066347
0.00013706088,0.010619938,0.007959664,0.0012359917,0.003355056,0.97496814,0.2560085,0.0002334714,0.7931488,0.00024989247
0.0029412508,0.0,3.4362078e-05,4.3809414e-05,3.886223e-05,1.7821789e-05,0.001216799,0.0001360178,0.9946207,1.9431114e-05
0.00035712123,0.920923,0.119457394,0.6808412,0.0019469857,0.0069055557,0.063919276,1.8179417e-06,0.79074645,0.037210554
0.0010170937,0.005972892,0.10737321,0.37345666,0.07392138,0.97044027,0.018582106,0.0009922087,0.014370382,0.032092005
0.0003555119,1.013279e-06,2.9087067e-05,2.3841858e-07,1.9609928e-05,6.824732e-06,2.655387e-05,0.0020537078,0.014082462,0.95696795
0.25371385,0.00010615587,0.00095257163,0.06924203,5.7071447e-05,0.0003015399,0.022531569,8.508563e-05,0.82244337,0.0005507171
0.0009046793,1.1920929e-07,6.261468e-05,1.4960766e-05,8.5651875e-05,3.746152e-05,0.0008894801,0.001306653,0.99042773,0.0017707944
0.00018686056,0.0,0.00011637807,7.778406e-06,1.9133091e-05,1.2427568e-05,0.0006119311,0.00089740753,0.998129,3.1143427e-05
0.0018097758,6.2584877e-07,8.165836e-06,0.9973773,1.8179417e-06,4.553795e-05,0.0073542595,2.682209e-07,0.00012218952,2.8848648e-05
0.00034028292,0.0012917817,0.0053599477,0.00019866228,4.2259693e-05,0.9053178,0.015406519,0.0069883764,0.3815825,0.0049359202
0.0006149113,0.06059718,0.95470095,0.002276361,0.0041281283,0.00052157044,0.0007777214,1.0997057e-05,0.22562954,0.0011398196
0.5695259,2.9802322e-08,4.8547983e-05,9.685755e-06,3.0755997e-05,0.00035309792,0.0005594492,0.26416183,0.002753973,0.018550962
5.4448843e-05,0.020109802,0.00028854609,0.00049617887,1.7285347e-06,0.0013922453,0.95806336,0.00015825033,0.07368007,0.0030175447
0.99332714,1.1920929e-07,1.7881393e-07,6.0617924e-05,2.9802322e-08,5.057454e-05,0.00048807263,1.3709068e-06,0.0003657043,0.00019365549
4.3064356e-05,1.3113022e-06,1.0818243e-05,0.9983446,8.136034e-06,2.2798777e-05,0.015656948,6.2584877e-07,0.038104057,0.00027042627
0.016753018,0.006471306,0.0001193285,0.0005541444,3.1888485e-06,0.0006893873,0.1790134,0.0021047592,0.057748467,0.23223612
0.0014778674,0.0,1.8507242e-05,4.7683716e-05,2.7537346e-05,7.122755e-06,0.001218617,8.574128e-05,0.99679613,2.115965e-06
0.07989454,1.1622906e-05,3.516674e-06,4.428625e-05,4.440546e-06,6.0081482e-05,0.0020088255,1.564622e-05,0.88158846,0.0317052
8.6307526e-05,0.6728242,0.4155548,0.6169831,0.04229176,0.008912861,0.032550067,6.7949295e-06,0.94997525,0.010651112
0.9914863,2.0861626e-07,1.3113022e-06,1.0848045e-05,1.1920929e-07,0.000103235245,0.00027781725,2.8640032e-05,0.0002721548,0.0023057163
0.9819151,1.5497208e-06,1.8656254e-05,0.00023841858,6.2584877e-07,0.0006736219,0.001665622,0.000374794,0.0023956299,0.0011531711
0.9286666,1.3709068e-06,6.854534e-07,3.784895e-06,4.172325e-07,9.506941e-06,0.00041300058,1.2218952e-05,0.036549717,0.056052268
0.0044908524,8.672476e-06,5.2899122e-05,0.0002232194,0.00027880073,0.00025823712,0.004486054,6.982684e-05,0.97809494,0.0017751455
0.05759713,8.6426735e-07,1.7255545e-05,5.146861e-05,3.6925077e-05,7.325411e-05,0.002788186,7.492304e-05,0.91583395,0.0016717613
0.0008703172,0.0,3.4868717e-06,6.508827e-05,1.013279e-06,8.195639e-06,0.0006468892,0.99587536,0.00074878335,0.00025838614
0.99252445,5.9604645e-08,0.0,1.2367964e-05,0.0,6.7055225e-06,0.0003502071,2.3841858e-07,4.720688e-05,0.0012637377
0.0007251501,0.11009869,0.51411617,0.41135833,0.2127994,0.8217851,0.078130245,0.0021391213,0.12808493,0.04249367
0.092121035,3.1292439e-06,5.3703785e-05,4.4316053e-05,2.0980835e-05,6.109476e-05,0.0005219579,0.00060147047,0.83204937,0.023142785
0.5763396,2.9444695e-05,0.014151424,0.0011876225,0.0030003786,0.0012229085,0.010229319,0.18090737,0.06810248,0.009341091
0.0021274984,2.8312206e-06,0.0012402833,0.00019538403,0.0020450354,0.000104010105,0.003404051,0.0006310344,0.97482467,0.0014108717
0.0012151301,1.1920929e-07,8.0794096e-05,7.6413155e-05,0.0011675954,5.5879354e-05,0.0010779202,0.0003298521,0.9918592,0.0003040135
0.0004030466,0.0014142096,7.250905e-05,0.030893326,6.780028e-05,0.0023737848,0.97627217,2.5629997e-06,0.0006607175,0.0004877448
0.041343868,3.8444996e-06,1.66893e-06,2.4735928e-06,8.34465e-07,3.0577183e-05,0.0003502667,2.8729439e-05,0.91063714,0.08977398
0.9683504,1.2516975e-06,1.3411045e-06,2.1904707e-05,7.2717667e-06,6.759167e-05,0.00055903196,7.0035458e-06,0.0007084608,0.0111299455
0.97315633,2.0861626e-07,2.771616e-06,3.412366e-05,3.927946e-05,0.00035718083,0.00085252523,0.000207901,0.0001604259,0.0031249821
0.07529873,0.0,1.8775463e-06,2.5063753e-05,2.3812056e-05,4.49121e-05,0.002943486,0.95424914,0.0005797148,0.00033065677
0.00015026331,0.00071135163,0.0043908954,0.005787194,0.00010338426,0.9910704,0.016701788,4.082918e-05,0.0030359924,0.0004968047
0.061725497,1.3411045e-06,8.1032515e-05,4.5478344e-05,7.4505806e-07,0.00014868379,0.009215206,0.0026795268,0.9557415,0.0013017654
0.0029129684,7.3611736e-06,7.608533e-05,0.0001001358,0.0009460449,0.0002811551,0.0047769845,8.6694956e-05,0.98358667,0.002030164
2.259016e-05,0.22621042,0.6763727,0.010374039,0.0015803277,0.005680412,0.0015924275,7.930398e-05,0.9689736,0.0040311515
0.0002387464,0.0108831525,0.00020369887,0.9437285,4.4703484e-06,0.0001514554,0.5358044,1.0728836e-06,0.8836297,0.0007020533
0.00031355023,9.4264746e-05,0.00018692017,2.9802322e-08,0.0002926588,7.122755e-06,2.3245811e-06,9.983778e-06,0.017890304,0.9920287
0.04169622,0.0014273822,0.0015057325,0.005345106,0.0018776953,0.0011000931,0.026104659,0.00026908517,0.8942516,0.013630748
0.032791227,0.0001090467,0.0015163422,3.0100346e-06,0.0030551553,0.00035637617,0.009177417,0.007704437,0.04131201,0.3102723
0.98699987,1.1920929e-07,7.5399876e-06,3.6656857e-05,4.7683716e-07,0.00063222647,0.0005017817,0.0014251769,8.08835e-05,0.0013597012
0.9892789,0.0,8.6426735e-07,1.3828278e-05,3.2782555e-07,0.00023832917,0.00044184923,0.00014871359,0.00012925267,0.00044432282
0.0017704368,0.91843843,0.037026584,5.6624413e-05,2.2292137e-05,0.0012323558,0.019344866,3.7550926e-06,0.2458818,0.055780202
0.00041893125,9.864569e-06,1.1205673e-05,0.0,1.1086464e-05,1.1920929e-06,2.3841858e-06,1.6391277e-06,0.015081495,0.99198973
8.830428e-05,0.00238204,0.9907613,0.013281822,0.023033142,0.0001989305,0.00060650706,0.0007545352,0.9086252,9.807944e-05
0.7476939,3.3676624e-05,0.090536326,0.0002425611,6.198883e-06,0.0013254881,0.0025469065,0.092675954,0.13102576,0.0008049011
0.00017803907,0.43245703,0.21872893,0.8724958,0.0027557611,0.003810823,0.043716133,7.390976e-06,0.92003787,0.0063931644
8.7320805e-06,0.97578585,0.063105255,0.00059601665,3.0100346e-06,0.015893877,0.010177553,5.662441e-07,0.6022675,0.0075702965
0.000569582,1.0699034e-05,3.552437e-05,0.00010916591,1.6391277e-06,0.00042799115,0.0038547814,1.7285347e-05,0.9936243,0.00018045306
0.00032290816,0.18529594,0.7805954,0.009537369,0.0022709966,0.6074867,0.011227369,0.0007594824,0.50247705,0.0014686286
0.6508673,8.940697e-08,4.23193e-06,1.2040138e-05,6.2584877e-07,2.1845102e-05,0.00057807565,0.00081807375,0.42773223,0.0012715161
0.11321077,0.0,2.0682812e-05,1.12354755e-05,2.7120113e-06,2.3245811e-05,0.0009704828,0.9798081,0.0022816658,6.613135e-05
0.97789145,0.0,1.758337e-06,6.3180923e-06,0.0,7.545948e-05,0.00016182661,0.0384171,1.0699034e-05,5.00679e-05
1.3649464e-05,0.00022146106,0.0021318197,0.00012463331,6.6548586e-05,0.99870145,0.026180804,0.0013031363,0.77145517,0.00016149879
0.014035821,0.0,3.2424927e-05,1.8149614e-05,6.943941e-06,1.4781952e-05,0.0009723604,0.0012085438,0.98781455,1.3500452e-05
0.004404962,1.4901161e-07,3.8176775e-05,6.854534e-06,3.3915043e-05,7.0273876e-05,0.001477927,0.0020885766,0.9833927,0.001906842
0.06658849,1.54078e-05,3.2484531e-06,3.2901764e-05,5.990267e-06,0.0001090765,0.004431188,1.6540289e-05,0.89856553,0.0269323
5.3346157e-06,0.0022471845,0.012628794,0.0030252337,0.00046810508,0.99820375,0.013101429,0.0005312264,0.61363304,0.0009622574
8.967519e-05,0.055963844,0.0069693625,0.061946362,0.00019279122,0.02066648,0.9180391,1.758337e-05,0.001665175,0.007377237
0.1541946,2.965331e-05,5.8680773e-05,1.0728836e-06,0.00038406253,7.098913e-05,0.00027516484,0.0015003085,0.0070345104,0.8995241
0.00052565336,0.0,1.1622906e-06,2.6404858e-05,4.7683716e-07,8.314848e-06,0.00038692355,0.99677074,4.7922134e-05,0.00018289685
3.2812357e-05,1.1920929e-07,0.0020880997,6.2942505e-05,0.99481285,5.26011e-05,0.0046485066,9.146333e-05,0.0698894,0.00052398443
0.00027415156,0.278694,0.15518355,0.1388534,0.038670152,0.93786454,0.21237561,0.037567705,0.61365217,0.08546567
0.95217454,4.4703484e-07,1.4901161e-07,1.12354755e-05,2.0861626e-07,3.2782555e-05,0.0006556511,3.874302e-07,0.0052238405,0.0008931756
7.56979e-06,1.1920929e-07,1.9103289e-05,0.998886,1.9460917e-05,3.427267e-06,0.007795781,7.748604e-07,0.13529402,3.5375357e-05
0.00037547946,0.00011104345,0.0141634345,0.00019559264,0.016147077,0.00026082993,0.0037616193,0.000400424,0.964132,0.0036808252
0.022852868,0.029586852,0.82016397,5.635619e-05,0.002993375,0.00056383014,0.0039060414,0.0006827116,0.03633392,0.014324605
0.0077418983,0.001255691,1.8119812e-05,0.00048312545,1.1920929e-07,0.0011798143,0.96857196,6.0260296e-05,0.007834077,0.0004002154
0.30557176,1.30832195e-05,8.910894e-06,1.4275312e-05,3.2782555e-06,9.831786e-05,0.0026045144,3.3527613e-05,0.60344505,0.022083163
0.0004965663,0.050364852,0.11494452,0.0017487705,0.0026111305,0.75902903,0.16197324,0.0055193007,0.038322657,0.03040737
6.917119e-05,0.00015345216,0.0011585057,0.0002631843,0.00035333633,0.9878752,0.091971725,0.00020885468,0.11851278,0.000118255615
0.96238995,3.5762787e-07,2.682209e-07,2.5361776e-05,1.4126301e-05,2.5242567e-05,0.00074750185,3.3080578e-06,0.00062674284,0.0063270926
0.00072938204,4.5597553e-06,2.8312206e-06,0.0,1.0281801e-05,5.662441e-07,5.662441e-07,8.6426735e-07,0.007944077,0.9968586
3.6537647e-05,0.0025506318,0.008333266,0.0008532703,0.00026911497,0.98877156,0.04124403,0.00025308132,0.50132495,0.00028926134
0.9965012,0.0,9.23872e-07,1.5556812e-05,0.0,0.00013411045,0.00021702051,2.9116869e-05,3.2305717e-05,0.00016105175
0.00017434359,0.0052083135,0.89922655,0.99228203,0.015856922,0.0003283918,0.0021151602,1.7285347e-06,0.38369757,2.2947788e-05
0.08514023,7.748604e-07,1.4007092e-06,4.0471554e-05,1.2516975e-06,3.8087368e-05,0.0020715296,1.6242266e-05,0.93318295,0.0040756166
0.9528162,0.0,4.4107437e-06,1.2278557e-05,1.7881393e-07,0.00011950731,0.00037553906,0.05105251,5.9872866e-05,0.00011712313
0.0008877218,5.662441e-07,6.1392784e-06,1.1920929e-07,2.9325485e-05,5.3733587e-05,5.0097704e-05,0.06870824,0.00024095178,0.97341824
0.0064743757,9.0152025e-05,4.0382147e-05,0.000118523836,7.992983e-05,0.00085783005,0.018131256,0.00014221668,0.9689181,0.008394182
0.9110589,1.013279e-06,1.2725592e-05,4.9471855e-06,5.096197e-06,0.00021579862,0.0004504323,0.0028029978,0.003851086,0.07175571
0.003900975,5.0008297e-05,2.5212765e-05,0.0,9.23872e-05,3.8444996e-06,4.053116e-06,5.543232e-06,0.0146999955,0.9914433
0.00088244677,1.7881393e-07,1.335144e-05,0.00035247207,0.997131,4.708767e-05,0.031535357,2.270937e-05,0.031473905,0.000106304884
0.9891994,7.1525574e-07,2.026558e-06,7.4505806e-06,6.2584877e-07,9.068847e-05,0.0002695024,8.136034e-06,0.00024017692,0.005108148
0.0002757907,0.3457628,0.11939761,0.0016050637,0.0053578317,0.0024125278,0.06996164,5.1617622e-05,0.6236472,0.027109742
0.8264829,1.04010105e-05,4.2915344e-06,0.00035738945,6.2584877e-07,7.712841e-05,0.0028011203,1.9967556e-06,0.21184552,0.0010354221
0.009905726,8.431077e-05,4.9471855e-06,3.874302e-05,1.3381243e-05,0.00029489398,0.00928992,1.2010336e-05,0.947844,0.028934032
0.00039574504,0.8852931,0.04365,0.98213124,0.0013438165,0.0073672235,0.36981285,1.1920929e-07,0.87774336,0.0014811754
0.99693155,2.9802322e-08,1.1920929e-07,1.0162592e-05,2.9802322e-08,4.836917e-05,0.00024294853,5.4836273e-06,2.6673079e-05,0.00023883581
0.9879057,5.364418e-07,3.325939e-05,6.467104e-06,7.4505806e-07,0.0007304549,0.0002808869,0.0014809966,9.2834234e-05,0.0072495937
0.99206996,0.0,1.1026859e-06,9.804964e-06,0.0,9.047985e-05,0.00023841858,0.00044506788,0.00017127395,2.5868416e-05
0.92731714,5.155802e-06,7.4505806e-07,6.92904e-05,2.9802322e-06,3.0249357e-05,0.0009943545,8.34465e-07,0.015024424,0.0077877045
0.033103824,9.483099e-05,1.3768673e-05,7.95722e-06,0.00018969178,0.00019574165,0.0016174614,9.185076e-05,0.75911254,0.34926054
0.980276,2.9802322e-07,5.0365925e-06,4.479289e-05,1.49309635e-05,0.0006458163,0.0018868148,0.00033146143,0.00013715029,0.0015365779
0.9789748,2.9802322e-08,1.013279e-06,9.089708e-06,1.1026859e-06,0.000114142895,0.00045087934,2.9176474e-05,0.001186341,0.00055503845
8.893013e-05,2.2947788e-06,6.2584877e-07,0.0,8.34465e-07,1.1920929e-07,0.0,0.0,0.0033387542,0.999089
7.674098e-05,4.172325e-07,1.3411045e-06,0.0,1.2814999e-06,5.9604645e-08,2.9802322e-08,2.9802322e-08,0.0005117953,0.9988929
8.589029e-05,0.94727314,0.114742994,0.03691265,4.0352345e-05,0.044630885,0.047599286,7.748604e-07,0.22984442,0.0055508018
0.00016340613,0.9541795,0.14688289,7.554889e-05,2.7269125e-05,0.010573119,0.02091831,3.2484531e-06,0.38238963,0.007150382
2.3961067e-05,6.881356e-05,0.0028565228,0.00034156442,0.9965495,0.00012761354,0.009785801,5.3942204e-06,0.6278042,0.00025591254
0.98977685,0.0,2.413988e-06,1.3500452e-05,2.9802322e-07,0.00022923946,0.0002554655,0.00049087405,8.0406666e-05,0.00035399199
7.814169e-05,0.0010248423,0.00035253167,0.0007780194,6.189942e-05,0.0038357973,0.28690422,3.582239e-05,0.9786966,0.00070145726
0.9960612,2.9802322e-08,8.34465e-07,3.8594007e-05,5.9604645e-08,0.00023654103,0.00050112605,2.8967857e-05,4.2825937e-05,9.4652176e-05
8.85129e-06,0.0,0.001899004,0.9988912,0.0005134642,2.0325184e-05,0.000711292,1.0609627e-05,0.0060699284,1.0192394e-05
2.5480986e-05,0.00079861283,0.85406333,0.0212847,0.7417593,0.00021201372,0.004432082,0.0004801154,0.97047305,0.00017473102
0.00037413836,0.0019290745,0.03061229,0.00091961026,0.0033279955,0.05073905,0.0004389584,0.002964139,0.06173423,0.856653
7.674098e-05,4.172325e-07,1.3411045e-06,0.0,1.2814999e-06,5.9604645e-08,2.9802322e-08,2.9802322e-08,0.0005117953,0.9988929
0.0001924336,5.662441e-07,5.8710575e-06,0.9982221,0.0,0.0001231432,0.012476623,2.9802322e-06,0.00048661232,0.0024285614
0.97599214,0.0,3.3974648e-06,2.6881695e-05,6.5863132e-06,0.0007530153,0.0009483993,0.00045228004,0.00014147162,0.0008634627
0.025370598,6.854534e-07,5.096197e-05,2.3245811e-05,8.910894e-06,0.000117987394,0.0018850863,0.0002759993,0.9575079,0.00124228
0.9948369,1.1920929e-07,4.172325e-07,4.261732e-06,8.940697e-08,4.87864e-05,0.0004606247,1.8000603e-05,3.8057566e-05,0.0012409389
0.9896013,5.9604645e-08,1.1920929e-07,3.1530857e-05,1.7881393e-07,2.9742718e-05,0.00030255318,1.7285347e-06,0.00018408895,0.00032150745
0.0006253123,0.003111571,7.5519085e-05,0.00042021275,8.940697e-07,0.0040811896,0.96966684,6.145239e-05,0.08057314,0.0003953874
0.08311784,0.00015747547,0.00061652064,0.011903405,0.0076581836,0.000382334,0.020074517,0.0001821816,0.73248434,0.01252079
0.0050559044,0.00039246678,5.468726e-05,0.0002759397,2.503395e-06,0.0014664531,0.038766503,9.208918e-06,0.97651637,0.0010067523
0.85997164,0.0,4.1127205e-06,3.7819147e-05,1.66893e-06,0.00023829937,0.00012728572,0.10164547,0.00014412403,0.00088733435
0.00041371584,0.026635557,0.0030659437,0.9966325,0.00031644106,0.0016482472,0.15013877,4.4703484e-07,0.31453574,0.0010790229
0.00025495887,0.5840141,0.039613128,0.9949089,0.036550283,0.01350081,0.44263655,3.3080578e-06,0.6884203,0.0045279562
0.00070407987,0.010015309,0.91080487,0.95511734,0.00030061603,0.00028434396,0.0027016997,1.2516975e-06,0.06824982,6.4998865e-05
0.9148697,1.2814999e-06,6.470084e-05,2.18153e-05,3.33786e-06,0.000451684,0.0009226203,0.0007304847,0.03379646,0.004134178
0.014100313,2.0861626e-07,1.7881393e-06,0.00010544062,2.7120113e-06,4.3332577e-05,0.0033689737,1.1503696e-05,0.9838072,0.00043481588
0.011236399,0.0077730417,8.6426735e-05,0.00020855665,1.090765e-05,0.00069743395,0.021941245,1.04904175e-05,0.9265488,0.049369454
0.017940193,8.85129e-06,7.492304e-05,0.00026246905,8.255243e-06,0.00019991398,0.008440673,8.633733e-05,0.9650223,0.001789093
0.98483276,2.682209e-07,4.172325e-07,1.1503696e-05,9.23872e-07,4.938245e-05,0.0003721416,3.874302e-06,0.000261724,0.0031705797
0.0018865168,0.60891914,0.024161011,0.9959996,0.06343767,0.029867709,0.33547232,5.662441e-07,0.7225298,0.005513191
1.3947487e-05,0.91555953,0.13197297,0.014747739,0.0009638667,0.02440387,0.036358416,1.0430813e-05,0.95292056,0.015785873
0.029374272,2.9802322e-08,2.4735928e-06,3.3408403e-05,2.9802322e-07,3.287196e-05,0.0022357106,1.6331673e-05,0.9726273,7.492304e-05
0.9964322,0.0,2.0861626e-07,4.8577785e-06,2.9802322e-08,7.1167946e-05,0.0001513958,1.1920929e-05,1.7732382e-05,0.00033691525
6.6787004e-05,7.0124865e-05,0.00091800094,0.993523,1.3023615e-05,2.7120113e-05,0.02015999,1.6987324e-06,0.5535899,0.000225842
6.0141087e-05,0.00068068504,0.006178826,0.9995092,0.044226825,0.00024947524,0.05425951,8.34465e-07,0.1302293,0.00028690696
3.9041042e-05,0.9168033,0.0485124,1.3619661e-05,1.1920929e-06,0.0040876865,0.049885362,1.1920929e-06,0.014867723,0.01072526
0.001257211,4.053116e-06,0.00022307038,0.00013703108,4.4882298e-05,0.00040975213,0.00071516633,0.0002169311,0.9913644,0.00024950504
0.0009548962,0.73933077,0.012193143,0.03700471,0.00014528632,0.031092614,0.34604758,3.9190054e-05,0.9092692,0.017648071
0.00011110306,0.9571531,0.014195979,1.5705824e-05,4.7683716e-07,0.0033585727,0.009192258,8.34465e-07,0.43163896,0.013959259
0.9510101,6.2584877e-07,2.8312206e-06,7.1555376e-05,5.066395e-07,0.00012117624,0.0007622242,1.0639429e-05,0.015795171,0.0008710325
7.674098e-05,4.172325e-07,1.3411045e-06,0.0,1.2814999e-06,5.9604645e-08,2.9802322e-08,2.9802322e-08,0.0005117953,0.9988929
0.010296613,0.015286654,0.0031909347,2.0295382e-05,0.008346915,0.00028672814,0.0008507371,0.00021672249,0.33556038,0.8128365
0.0014782548,0.0,0.00025054812,5.3435564e-05,0.00012099743,6.812811e-05,0.0015903115,0.0005585551,0.9956888,1.6868114e-05
0.00015464425,1.1026859e-06,2.8312206e-06,0.0,2.95043e-06,3.2782555e-07,8.940697e-08,1.4901161e-07,0.000811249,0.9986308
0.9950752,0.0,5.9604645e-08,2.6524067e-06,2.9802322e-08,7.516146e-05,0.00022119284,9.894371e-06,6.2555075e-05,0.0003298819
0.9943718,2.9802322e-07,1.847744e-06,1.052022e-05,1.1920929e-07,0.00014919043,0.000274688,1.770258e-05,6.571412e-05,0.0019957423
0.016747892,3.2782555e-07,6.7055225e-06,3.71933e-05,9.030104e-06,5.0842762e-05,0.001934737,9.0152025e-05,0.9780233,0.0016938746
0.0013254583,0.87094945,0.07360196,0.0001821518,1.8060207e-05,0.0011606812,0.015554279,9.23872e-07,0.07821101,0.06426111
0.0012831092,8.940697e-08,0.0023576021,0.0009646416,0.0007814169,0.00017529726,0.0032898188,0.079803646,0.99128735,6.6548586e-05
6.446242e-05,0.2705884,0.18678,0.091528356,0.041671276,0.98932606,0.04040581,0.0006414652,0.6959796,0.0047397614
6.368756e-05,0.031276375,0.06973094,0.0007985532,4.8696995e-05,0.9948783,0.022393942,0.0012837052,0.17974216,0.001790762
0.0070980787,5.364418e-07,7.688999e-06,5.8084726e-05,7.122755e-06,6.455183e-05,0.0016900599,3.194809e-05,0.984334,0.0008698404
0.29332036,0.0021933317,0.0016641021,5.9604645e-08,8.764863e-05,3.5852194e-05,6.6667795e-05,7.8082085e-06,0.0006965995,0.91185266
0.03953427,0.0011363626,0.9697566,0.00014969707,8.738041e-05,0.0008133352,0.00058981776,0.00073352456,0.0041399,0.0016510487
0.9960488,0.0,0.0,1.5228987e-05,0.0,4.172325e-06,0.00029945374,8.940697e-08,4.8935413e-05,9.8884106e-05
0.20511395,6.467104e-06,1.5616417e-05,0.00032025576,2.861023e-05,0.00013449788,0.004836291,0.0003026724,0.79899037,0.020193964
4.413724e-05,0.87918633,0.03187409,0.037766278,0.00031909347,0.002139628,0.02073285,5.066395e-07,0.9530349,0.029461235
0.00038033724,0.0,1.4901161e-07,0.99816597,4.23193e-06,2.682209e-06,0.0009951591,1.2218952e-06,4.029274e-05,2.6524067e-06
4.6104193e-05,0.3074386,0.397754,0.08191651,0.31942934,0.007460922,0.032161236,1.9460917e-05,0.9435619,0.002914995
0.99733174,0.0,0.0,9.387732e-06,0.0,1.0281801e-05,0.00018775463,6.854534e-07,8.7320805e-06,0.0003144145
0.00033408403,0.00039729476,0.00067925453,0.0003824532,1.218915e-05,0.988332,0.032139957,7.927418e-06,0.0040566623,3.2812357e-05
0.98500836,1.4901161e-07,2.8312206e-06,3.8921833e-05,5.9604645e-07,0.00021892786,0.0006788373,0.00028035045,0.00040844083,0.0013377666
2.2411346e-05,0.0004620254,0.0030281246,5.340576e-05,0.00015765429,0.9925001,0.032631695,0.0027050376,0.8611017,0.00038310885
0.0010495782,5.00679e-06,8.741021e-05,0.9963809,4.4107437e-06,0.00023764372,0.0068213344,1.8179417e-06,0.001346916,0.00035393238
0.00033208728,0.9540782,0.11363703,0.9528307,0.0024070442,0.0051624775,0.16969475,5.9604645e-08,0.8935752,0.0036973655
0.00016024709,0.00087183714,0.003468424,0.0023728013,3.811717e-05,0.9965845,0.0117203295,0.00020372868,0.00404495,0.0004657805
0.005677521,4.172325e-07,5.468726e-05,6.0081482e-05,3.3676624e-05,5.5462122e-05,0.0006120801,0.00022429228,0.98157305,0.0008584857
0.050175756,8.940697e-08,3.5762787e-06,3.913045e-05,1.2218952e-06,2.0742416e-05,0.0014036894,1.6480684e-05,0.94376236,0.00015547872
0.03887123,1.7881393e-07,0.002062291,0.0024949312,0.002105683,8.8721514e-05,0.009202212,0.007546574,0.974602,3.799796e-05
0.00010743737,0.017664194,0.54570746,0.0039061904,0.0029919147,0.0014456809,0.0013909042,0.00048303604,0.97526824,0.0009404421
0.69112307,6.854534e-07,0.00030851364,1.3589859e-05,3.2395124e-05,0.008124679,0.00096154213,0.10012281,0.001265496,0.04398775
0.32467222,1.9520521e-05,0.00048398972,0.020814091,0.00085631013,0.74125016,0.0049106777,0.0019660294,0.00022757053,0.0017139316
0.767486,1.5497208e-06,6.741285e-05,1.6987324e-06,1.4692545e-05,0.00022491813,0.00032815337,0.0073384345,0.013445526,0.20588994
0.9926088,2.0861626e-07,2.682209e-07,1.4215708e-05,1.7881393e-07,4.068017e-05,0.0002939701,2.8908253e-06,8.6039305e-05,0.0022908747
2.3186207e-05,0.2115649,0.512329,0.016494423,0.0008646548,0.0077960193,0.0027838945,2.8282404e-05,0.9867409,0.0006890297
2.8431416e-05,0.9604166,0.029280782,0.011900067,8.6426735e-06,0.0018294752,0.012050986,1.4901161e-07,0.9134073,0.022023559
0.0002270639,0.013911784,0.753137,0.9528518,0.9790169,0.011462182,0.022019982,7.301569e-06,0.14248556,0.00036996603
