0,1,2,3,4,5,6,7,8,9
0.99521077,0.0,1.5884638e-05,8.940697e-08,5.662441e-07,2.1725893e-05,0.0012795925,9.4771385e-06,0.00031632185,0.00043153763
0.9300277,6.4969063e-06,0.0015377104,0.00047433376,4.7683716e-07,0.00077301264,0.0017729104,0.2067129,0.0012914538,0.006207466
0.004118234,0.0001116693,0.046961546,0.0022884905,0.43275678,0.9924958,0.028830051,7.021427e-05,0.0034800172,0.00032016635
4.9114227e-05,0.09259874,0.0033208728,0.9992419,0.08733934,0.08125803,0.64577913,0.0015719831,6.970763e-05,0.00050053
0.0016483068,6.9737434e-06,5.981326e-05,0.99946666,0.00033208728,2.3305416e-05,0.00072062016,2.1547079e-05,0.00031027198,6.5267086e-06
0.9927396,0.0,0.00018852949,7.4505806e-07,1.1920929e-07,0.00012609363,0.0013726354,0.0035990477,2.965331e-05,0.00017955899
0.0005303323,8.940697e-08,7.748604e-06,1.7136335e-05,9.804964e-06,3.120303e-05,0.02147159,5.9604645e-08,0.98633754,9.614229e-05
6.4492226e-05,7.7188015e-06,0.0011582077,0.99948543,0.87047964,0.00042068958,0.005653888,8.940697e-08,0.0012299418,1.7881393e-06
2.104044e-05,6.854534e-07,1.3113022e-05,0.046144664,0.00020956993,3.4689903e-05,0.0010847747,0.0,0.99623716,1.937151e-06
7.9363585e-05,7.900596e-05,1.6093254e-06,6.645918e-05,7.927418e-06,0.009147882,0.98185885,3.6269426e-05,0.00015094876,0.017640203
0.0013375878,0.00059461594,0.94916797,0.008143902,0.014420837,0.0047947466,0.0056508183,0.0044647455,0.9471907,0.0071590245
0.013891816,2.9802322e-08,0.00029283762,0.00019460917,1.6391277e-06,1.8298626e-05,0.0010429621,2.1189451e-05,0.98871034,2.9921532e-05
0.00010883808,0.5903702,0.025046736,0.99482274,0.00034618378,0.0055781305,0.058769554,0.0007840395,0.729442,0.00012850761
0.034804583,0.074228704,0.7285592,0.00097334385,0.00082045794,0.0013606548,0.0028950274,0.08606124,0.002172023,0.24153101
0.77367824,0.0,4.4226646e-05,3.0845404e-05,9.23872e-07,2.95043e-05,0.0025607347,5.891919e-05,0.7081324,0.00013890862
0.35189122,0.18864304,0.06414464,0.006425768,0.00014844537,0.0053510964,0.056750685,0.039297342,0.29648674,0.05716276
0.0001219213,3.1292439e-06,1.6957521e-05,0.9995218,0.0013427734,4.4107437e-06,0.0013267696,2.682209e-07,0.02652812,1.1622906e-06
0.99666005,0.0,1.090765e-05,0.0,1.1920929e-07,1.4722347e-05,0.0010018647,6.5863132e-06,0.00018149614,0.0001450479
0.0002182424,0.79402035,0.20186564,0.060314715,0.6507292,0.22529843,0.26366693,4.169345e-05,0.18562242,0.019961774
0.000113874674,0.00070142746,1.0460615e-05,0.0004066825,1.6182661e-05,0.011472791,0.886276,3.245473e-05,0.69809705,0.0015811622
0.99318624,2.9802322e-08,0.00033009052,4.708767e-06,1.7881393e-06,0.00068324804,0.0006724,0.0016058087,0.00010576844,0.0005367398
0.034976453,0.0006303191,0.98206556,0.006495416,0.0014576316,0.0012089908,0.0005415082,0.023718625,0.00024411082,0.0072101653
0.9952667,0.0,6.955862e-05,3.5762787e-07,1.9669533e-06,0.000115424395,0.0006542802,4.440546e-05,2.9742718e-05,0.00015974045
0.031514913,0.0017796755,0.19863793,0.0060014427,0.0003452599,0.0010111034,0.020942152,0.0019123554,0.9255842,0.0029189587
0.020021856,0.0,0.00010231137,3.3140182e-05,2.9027462e-05,4.172325e-06,0.0011944771,1.4901161e-07,0.9735515,0.00010487437
6.324053e-05,0.0728915,0.49395144,0.10352099,0.110810846,0.9350736,0.032319665,0.01706168,0.02594325,0.007665843
0.0014654398,0.00067287683,1.5825033e-05,0.00016331673,4.3183565e-05,0.016338617,0.96069926,0.00030976534,6.303191e-05,0.013186336
0.94955534,7.748604e-07,0.0006055236,4.4584274e-05,5.9604645e-08,0.00021669269,0.0015711784,0.14813319,0.0005464256,0.002602607
0.028953105,2.4408102e-05,0.00013393164,4.401803e-05,0.0,9.387732e-06,0.00010019541,0.97383934,0.019474447,0.023266196
3.9428473e-05,0.9417033,0.0057075024,0.063601345,0.00011190772,0.015844345,0.051912695,6.955862e-05,0.9495497,0.0031592846
8.5145235e-05,0.0010086894,6.2584877e-07,8.884072e-05,1.6272068e-05,0.0014950335,0.99115014,8.106232e-06,0.00022536516,0.013108671
3.749132e-05,0.001195997,4.172325e-06,0.00011694431,3.451109e-05,0.010536581,0.9773105,1.758337e-05,0.010885477,0.015078098
0.0029986799,0.0008690357,3.2186508e-06,6.702542e-05,0.00010254979,0.00034561753,0.98411393,8.85129e-06,3.9458275e-05,0.005217254
0.0009096861,1.3798475e-05,0.0008188486,0.99897826,0.0091018975,0.00017601252,0.0020907521,6.741285e-05,4.592538e-05,1.9997358e-05
0.94092774,0.0,2.3633242e-05,9.23872e-06,3.516674e-06,1.5497208e-05,0.0028490722,6.4373016e-06,0.12645522,0.00022822618
0.99745333,0.0,1.3828278e-05,0.0,2.9802322e-08,1.7732382e-05,0.0006866157,8.672476e-06,1.9341707e-05,3.3169985e-05
0.9814755,0.0,0.00020834804,1.847744e-06,3.1590462e-06,0.0003067255,0.0054711103,1.9788742e-05,0.005808741,0.00067174435
0.99437684,0.0,1.8030405e-05,2.0861626e-07,1.847744e-06,1.8537045e-05,0.0005544424,3.516674e-06,0.00012803078,0.00016468763
0.9947767,0.0,4.2915344e-05,2.0861626e-07,3.5464764e-06,9.75728e-05,0.0014470816,8.761883e-06,6.3329935e-05,0.00015890598
0.00041136146,5.9604645e-08,5.0336123e-05,0.00018361211,1.7881393e-06,1.4483929e-05,0.0017129779,1.4901161e-06,0.9968534,1.3887882e-05
0.00056511164,0.0015598834,0.99218905,0.007771075,0.025921136,0.0027509332,0.0017319918,0.016750187,0.84962547,0.02642861
0.82978106,0.0,3.0338764e-05,1.6093254e-06,1.8626451e-05,3.3974648e-06,0.003455758,2.3841858e-07,0.49278545,0.00024080276
3.2514334e-05,1.9937754e-05,0.0074226856,0.00017616153,0.00015813112,0.9983814,0.028990984,0.00032261014,0.05292526,0.00020766258
0.00017356873,0.93593884,0.0059925914,0.0062933564,1.0281801e-05,0.0055043995,0.025668591,0.003305316,0.89451134,0.024463326
0.00035706162,8.940697e-08,4.172325e-06,3.311038e-05,3.5762787e-07,3.695488e-06,0.0013878644,7.748604e-07,0.9945283,6.386638e-05
0.0135885775,3.8146973e-06,0.00025740266,3.0487776e-05,0.0,2.8967857e-05,0.0004146695,0.9787056,0.0057821274,0.011200041
0.080709636,2.3841858e-07,0.012947112,0.0001988709,0.000500828,0.00018885732,0.0055689216,2.1606684e-05,0.9087992,0.0011883676
0.04269868,0.00096461177,0.007011175,0.009073764,0.00015774369,0.0027765334,0.03951505,0.010543287,0.89605725,0.009858459
0.0015998483,0.71151775,0.063794285,0.00052058697,9.340048e-05,0.0016613901,0.013295025,0.0044193566,0.10308814,0.12929723
0.99682534,0.0,1.6093254e-06,0.0,5.9604645e-08,1.6093254e-06,0.0013274252,4.4703484e-07,0.00026786327,8.33869e-05
0.00019705296,2.810359e-05,0.0023774803,8.022785e-05,0.00040706992,0.97973967,0.11482009,0.00033664703,0.006711006,0.0052362382
0.002018422,0.8617471,0.022658288,0.0051606894,0.005095184,0.023083389,0.18629122,0.0011642873,0.01693955,0.09245151
9.378791e-05,1.3649464e-05,0.005975127,0.00011226535,0.0003414154,0.99930274,0.030126154,0.0003773868,0.0886997,0.00036239624
0.641459,2.115965e-06,0.00020134449,0.0003042519,4.172325e-07,0.00017756224,0.0066151917,0.0036742091,0.7874116,0.00085377693
0.95456636,4.172325e-07,0.00012934208,3.9339066e-06,1.8656254e-05,5.1677227e-05,0.0073588192,4.7951937e-05,0.004347831,0.003757447
0.0015657544,0.8779648,0.07806054,0.016881049,0.025328398,0.07926658,0.12578517,0.00040376186,0.07597378,0.066682786
0.98989236,2.9802322e-08,5.057454e-05,2.682209e-07,1.1920929e-07,3.4868717e-05,0.0028543174,5.0991774e-05,0.0053881705,0.00025567412
0.0006636381,0.8553339,0.041844487,0.024370998,0.0016898811,0.05132568,0.080896586,0.00802356,0.0038183033,0.03764975
0.9833746,4.7683716e-07,0.00017419457,0.0001989603,1.2814999e-06,0.001336515,0.0049608946,0.0014938414,0.011328816,0.00036492944
0.0053019226,0.613546,0.07859379,0.00039499998,0.00012594461,0.0020045936,0.011696607,0.007955432,0.03205651,0.29919004
0.9976465,0.0,1.13248825e-05,0.0,0.0,9.179115e-06,0.0013190508,1.3053417e-05,9.715557e-06,2.1755695e-05
0.000264287,2.6524067e-06,0.0059856772,5.1259995e-05,6.735325e-05,0.9993324,0.01756385,0.0007496178,0.029592246,0.00012427568
0.00038331747,0.0005527735,0.032224894,0.082315475,0.65625393,0.97445244,0.06756672,5.39124e-05,0.00010180473,0.00018805265
0.13646498,8.5532665e-06,0.0066392124,2.95043e-06,0.00076529384,1.2755394e-05,0.0011661351,1.5348196e-05,0.09768635,0.86897075
0.11144823,7.432699e-05,0.0010437071,0.0022201538,0.00012731552,0.0004995167,0.027258605,0.00050345063,0.907215,0.017641336
0.98643386,1.7881393e-07,0.0010790527,2.7060509e-05,2.5331974e-06,0.0015990436,0.0009892881,0.0065764487,0.00019192696,0.0011436045
0.9934786,1.4901161e-07,0.00026246905,3.874302e-06,0.0,0.0005250871,0.0016727448,0.0057092905,0.00049847364,7.882714e-05
0.00019457936,0.000116974115,0.13504851,0.011487722,0.7337046,0.0014231801,0.018044204,4.4703484e-07,0.9857222,0.0006198287
0.02145496,2.8908253e-05,0.003708303,0.0016383827,3.0696392e-06,0.00400427,0.010938525,0.56583995,0.047677696,0.11537227
0.0008276999,1.7881393e-07,4.529953e-05,3.784895e-06,0.0,1.4901161e-06,2.7418137e-05,0.98606044,1.5974045e-05,0.0007647872
0.07427344,0.0,0.00011104345,9.724498e-05,1.5050173e-05,3.784895e-06,0.0012649298,8.34465e-07,0.9656937,0.00015702844
0.9962226,0.0,7.987022e-06,2.9802322e-08,2.9802322e-07,8.761883e-06,0.00064852834,3.33786e-06,5.38826e-05,4.3332577e-05
0.0002682507,1.7762184e-05,0.0001232624,0.9996431,0.00030225515,2.7358532e-05,0.0011674762,2.5421381e-05,0.00023025274,6.0498714e-06
0.003999114,3.6805868e-05,0.0005996525,0.9974836,0.00013956428,4.476309e-05,0.0010687411,0.00031501055,6.9350004e-05,5.2183867e-05
0.00017267466,1.5556812e-05,0.00020065904,0.9998211,0.0011197925,5.0336123e-05,0.0010716915,1.9431114e-05,0.0002913773,5.2154064e-06
0.0011955798,2.9802322e-08,4.7266483e-05,4.544854e-05,1.7881393e-05,1.2457371e-05,0.00185287,2.9802322e-07,0.99074876,0.00011998415
0.2081714,7.1525574e-06,0.0006708503,0.0002939999,0.0,9.36687e-05,0.0009888113,0.9073476,0.0016983151,0.01181972
0.9780516,1.7881393e-07,0.0007518232,1.2516975e-06,2.3245811e-06,0.0001733303,0.0023936927,0.0033972263,0.00040116906,0.009237111
0.709512,0.00014978647,0.00023850799,0.0022835135,2.0861626e-07,0.00144279,0.1917058,0.06298405,0.057218105,0.00044807792
0.64999694,9.596348e-06,0.00036892295,0.40143204,5.6028366e-06,0.0006233454,0.006794274,0.010306001,0.0015843213,0.00014594197
0.9960703,0.0,3.9964914e-05,2.9802322e-08,1.4901161e-07,2.5898218e-05,0.0008710921,3.746152e-05,3.1381845e-05,9.307265e-05
0.008778751,5.9604645e-08,0.00048342347,0.004250318,0.9980588,3.4064054e-05,0.002841115,0.0,0.0005733669,0.00017219782
0.99541914,0.0,0.00031349063,8.34465e-07,2.0861626e-07,0.00052937865,0.00095152855,0.00152269,4.2527914e-05,0.000117987394
0.99465096,0.0,2.1785498e-05,2.9802322e-07,1.7881393e-07,3.877282e-05,0.0019939244,6.443262e-05,0.0003772974,0.00013956428
0.0011799634,1.1920929e-07,0.004417211,0.00060617924,0.0024866164,0.00015580654,0.0036078393,1.5795231e-06,0.9918431,0.00011020899
0.9801862,3.2782555e-07,0.0019114614,1.8924475e-05,1.7285347e-06,0.0009276271,0.0014115572,0.019473761,0.00011917949,0.0020789802
0.00068828464,6.780028e-05,0.0026834607,0.00025370717,0.000546813,0.9748918,0.12185338,0.00038021803,0.6634894,0.0018970072
0.0133494735,0.0,6.4969063e-06,6.2584877e-07,0.10426921,0.0,7.1525574e-07,0.0,0.0001360178,0.9920572
0.0013728738,1.50203705e-05,0.000119537115,0.9988911,0.0020288527,4.541874e-05,0.0029357076,7.897615e-06,0.00095000863,7.3611736e-06
0.00094652176,0.7438771,0.16666615,0.13138232,0.13654128,0.07765561,0.09776595,0.00021851063,0.46738228,0.022533864
0.04128936,0.00015977025,0.0012430251,0.0011920035,1.6599894e-05,0.0006426275,0.014621854,0.0020907223,0.94701284,0.0054118037
0.9944371,0.0,9.5665455e-06,8.940697e-08,2.9802322e-08,1.513958e-05,0.0028856695,1.347065e-05,0.0023590326,3.6150217e-05
0.00026071072,0.0,0.0,0.0,9.23872e-07,0.0,0.0,0.0,0.0015057623,0.9980895
0.49054745,2.5629997e-06,0.00019311905,9.661913e-05,0.0,0.00021907687,0.0016122758,0.9162737,0.0035488307,0.0024843216
5.555153e-05,0.001578927,0.10802233,0.0032972395,0.0034369826,0.99973613,0.008346111,0.0011112988,0.18696791,0.00017637014
0.93675756,0.0,1.6987324e-06,2.9802322e-07,4.8577785e-06,9.23872e-07,0.0016887188,5.9604645e-08,0.102926135,6.41942e-05
0.00062033534,0.003644228,0.97387695,0.052511185,0.18129072,0.006996751,0.008223236,0.0008159578,0.9228509,0.0051261187
0.83139265,8.493662e-06,0.0017331839,0.0006892979,1.1920929e-07,0.00032049417,0.0029074252,0.6071527,0.0005181432,0.007419437
3.4451485e-05,0.20611459,0.00949946,0.9997542,0.0058943033,0.015370131,0.17683306,0.00089368224,0.012625039,6.246567e-05
0.0048295557,1.2814999e-06,0.00013381243,1.7881393e-07,5.066395e-07,7.522106e-05,0.000472188,0.00056761503,0.0035281777,0.9229297
0.9812838,4.7683716e-07,0.0007380843,0.00011318922,2.3841858e-06,0.0016546547,0.002078861,0.004994482,0.0017585158,0.0010158718
0.986205,1.1920929e-07,0.00035467744,1.6152859e-05,0.00015765429,0.0009941161,0.002637893,6.6787004e-05,0.0030559301,0.0023878217
0.0007048547,8.940697e-08,0.0002195239,0.00012516975,0.08335218,8.0525875e-05,0.0055313706,2.9802322e-08,0.9742226,0.0011838377
0.04336196,2.9802322e-07,0.0012311935,0.000557214,0.0016377866,5.51939e-05,0.0032865405,1.7166138e-05,0.9115457,0.020047635
0.9948846,0.0,1.3768673e-05,0.0,8.34465e-07,1.1712313e-05,0.00091832876,7.1525574e-06,9.915233e-05,0.0001489222
4.324317e-05,0.6382058,0.060449928,0.99387246,0.0037707686,0.05156651,0.13083649,0.002243191,0.3910637,0.00027176738
4.7892332e-05,9.23872e-07,0.0019796193,8.201599e-05,1.4454126e-05,0.99945223,0.015467674,0.0018446743,0.0007252395,6.300211e-05
9.924173e-06,0.0022922754,0.6305933,0.99490845,0.037319005,0.0031231046,0.0012245476,6.1541796e-05,0.10932389,2.3573637e-05
0.9800971,0.0,9.0152025e-05,2.2649765e-06,3.1292439e-06,6.520748e-05,0.0020229518,1.8179417e-05,0.013055444,0.0010918677
0.00015088916,2.977252e-05,0.00032749772,0.9997107,0.0007466376,6.070733e-05,0.001196146,1.2218952e-05,0.0002297163,2.3841858e-06
0.9831763,1.7881393e-07,0.0004093945,6.9618225e-05,5.9604645e-07,0.00075277686,0.001314044,0.010841727,0.00029847026,0.0006067157
0.00023913383,1.1026859e-06,0.005335152,0.8826052,0.9983647,0.00022390485,0.007085383,0.0,8.660555e-05,2.9593706e-05
2.5480986e-05,0.5973818,0.000443846,0.3678987,5.7905912e-05,0.0013308525,0.091840744,1.5616417e-05,0.9709058,0.0006211698
0.99675405,0.0,2.7418137e-06,0.0,1.3411045e-06,4.23193e-06,0.00094899535,5.9604645e-08,0.00019398332,8.317828e-05
0.0002694428,0.04461518,0.97271645,0.16823882,0.17334813,0.022328168,0.010738939,0.00062420964,0.92819417,0.0014889538
0.8100271,1.3113022e-06,0.13063434,1.0311604e-05,0.0006401539,0.0003052652,0.0031539202,0.00033032894,0.00056806207,0.023280472
0.00014585257,8.457899e-05,0.0069523454,0.00024861097,0.0038440526,0.9908259,0.060063183,0.00010958314,0.80843925,0.003219843
8.878112e-05,0.00049456954,0.052351177,0.0057020485,0.009411931,0.99662495,0.028864145,0.00025230646,0.0005790293,0.00015076995
0.0008046031,0.00056788325,0.0027035773,0.99906427,0.017419696,0.0013014674,0.011833549,0.00010818243,7.215142e-05,3.758073e-05
0.00066515803,1.013279e-05,6.8724155e-05,7.978082e-05,0.0,0.00054854155,0.0011096001,0.9782144,0.012519419,0.05808547
0.99696195,0.0,2.592802e-06,0.0,7.1525574e-07,2.2351742e-06,0.001016289,2.3841858e-07,5.51939e-05,2.3126602e-05
0.9926827,0.0,0.00010898709,3.33786e-06,4.172325e-07,0.0002617836,0.0013533533,0.0005721748,0.00031858683,0.0001719594
0.99649656,0.0,5.7816505e-06,2.9802322e-08,6.556511e-07,9.924173e-06,0.0011714101,9.23872e-07,6.347895e-05,2.7060509e-05
0.013185382,0.0,6.645918e-06,4.0322542e-05,1.4305115e-06,1.7881393e-06,0.002117902,2.3841858e-07,0.98817146,2.9057264e-05
0.8916261,3.5762787e-07,0.00058591366,2.8401613e-05,0.0010648668,0.00010344386,0.0059613585,5.841255e-06,0.17144525,0.008968592
0.00026071072,0.0,0.0,0.0,9.23872e-07,0.0,0.0,0.0,0.0015057623,0.9980895
0.046833366,1.1175871e-05,0.006669432,4.7385693e-06,0.0005557239,7.212162e-06,0.00046280026,6.824732e-05,0.038556486,0.91911864
0.001277566,0.44388345,0.014437556,0.0027759075,0.0008134842,0.020203501,0.064104766,0.03863889,0.006704539,0.501635
0.0010812283,2.9802322e-08,0.00013968349,0.00016027689,2.4408102e-05,1.2814999e-05,0.0026215315,4.7683716e-07,0.9938804,4.5508146e-05
0.9837259,0.0,0.00026494265,3.1292439e-06,0.00022286177,0.0001668036,0.0008933544,1.3828278e-05,0.0035785437,0.0070560277
0.00018814206,0.91790676,0.00854066,0.0066593885,0.0046438277,0.09884563,0.27264303,0.00036358833,0.039136022,0.06972277
0.004314363,8.940697e-08,5.3197145e-05,0.00038066506,4.3809414e-06,7.0035458e-06,0.001319021,5.632639e-06,0.9899765,0.000101178885
0.021264851,0.0006209314,2.1398067e-05,0.00038564205,2.2470951e-05,0.0013830066,0.9576073,0.0004929602,0.00028321147,0.004828304
0.96018803,0.0,3.695488e-05,2.9802322e-07,1.9967556e-06,6.377697e-06,0.0014560223,4.172325e-07,0.06193185,0.00017359853
0.003940314,0.45608196,0.24831453,0.9392586,0.016416162,0.038821608,0.0962629,0.01840961,0.003786236,0.0029066503
0.0015153885,0.00074097514,0.0048180223,0.99397284,0.25729126,0.011610329,0.044866085,0.0023864508,0.00017410517,0.002102226
0.56091577,3.874302e-07,0.00013631582,0.13834849,0.016799271,7.271767e-05,0.0011710525,1.847744e-06,0.03903863,0.000338614
0.7815329,0.0,9.045005e-05,3.0398369e-06,2.0802021e-05,3.0994415e-06,0.002063036,1.66893e-06,0.52766573,0.002312541
0.27806565,1.8179417e-06,0.01717323,0.00047537684,0.00038474798,0.00039672852,0.009387463,0.00032025576,0.87636083,0.0019931793
0.0033006966,8.940697e-08,0.00021782517,0.00020259619,0.00026631355,6.943941e-05,0.0071926415,9.834766e-07,0.9836978,0.0003272295
0.25377572,6.7949295e-06,0.0007135272,0.00018927455,4.3809414e-06,0.00013050437,0.009298176,0.0015323758,0.92974114,0.002067387
0.9855825,1.4901161e-07,0.00020250678,2.2143126e-05,4.172325e-07,0.0005221069,0.0019048154,0.0075220168,0.0074462593,0.00068479776
0.9793436,5.9604645e-08,0.0001334548,4.5895576e-06,5.155802e-06,0.0001308024,0.0031295717,5.5015087e-05,0.013267547,0.0020678341
0.99674535,0.0,3.0994415e-06,0.0,1.4901161e-07,2.8312206e-06,0.00056380033,9.834766e-07,8.037686e-05,6.681681e-05
0.0013281703,4.762411e-05,0.00032284856,0.9993694,0.01101163,0.00020995736,0.0058888197,2.7626753e-05,7.095933e-05,1.8924475e-05
0.0036475062,0.0,1.963973e-05,7.390976e-06,1.1622906e-06,4.887581e-06,0.0030640662,1.4901161e-07,0.98482347,7.086992e-05
0.9843689,2.9802322e-07,0.00047013164,5.0663948e-05,3.2782555e-07,0.0007074475,0.0014232695,0.018122375,0.0013205409,0.0011208951
0.9953103,0.0,7.8976154e-05,2.682209e-07,4.261732e-06,0.00017109513,0.0008712113,4.5359135e-05,6.276369e-05,0.00030505657
0.0049647093,4.3809414e-06,0.00012713671,0.00037688017,0.00043666363,0.00026628375,0.04199195,3.7550926e-06,0.9554882,0.0011506081
0.9964021,0.0,3.1292439e-06,0.0,1.7881393e-07,5.2452087e-06,0.0015904903,1.8775463e-06,0.00031900406,0.000110805035
0.86044765,0.0,2.3752451e-05,9.23872e-07,3.5464764e-05,1.013279e-06,0.0010066926,8.940697e-08,0.26495904,0.00049087405
0.0060542226,0.28555018,0.02826032,0.001329273,0.0006695688,0.0068065226,0.10445899,0.009377807,0.0060658157,0.22413799
0.0006569624,0.00087067485,2.2053719e-06,0.00011497736,2.1487474e-05,0.0012148023,0.98277986,3.7640333e-05,4.9591064e-05,0.009595275
0.0009455979,0.0018924177,0.015667647,0.0054748654,0.007888734,0.97676325,0.20112103,0.0048388243,0.18162358,0.014118373
0.0003387332,0.0,9.11355e-05,2.6196241e-05,3.8653612e-05,1.8388033e-05,0.008068025,0.0,0.9923024,3.4570694e-05
0.9346761,1.1920929e-06,0.008604705,2.810359e-05,0.00069877505,0.00051146746,0.0033394396,0.0006465614,0.00029319525,0.059155762
0.00031468272,1.7881393e-06,0.00039839745,0.000256598,0.9300277,6.887317e-05,0.04494196,0.0,0.917202,0.0005313456
0.0007387996,0.7746879,0.30432883,0.02481085,0.074434966,0.078336746,0.046412498,0.0002759099,0.014800996,0.027467579
0.0005091727,1.2218952e-06,6.2555075e-05,0.9993905,0.028053403,2.18153e-05,0.001098752,9.23872e-07,0.00033694506,4.3809414e-06
0.9955269,0.0,7.739663e-05,3.2782555e-07,2.3841858e-07,0.00011703372,0.00083234906,0.00017294288,9.715557e-06,3.71933e-05
0.049783856,8.0645084e-05,0.0017972589,7.939339e-05,0.0,7.0631504e-06,0.00012394786,0.9459412,0.0007519722,0.036383092
0.0012316108,2.1457672e-06,0.0031854808,2.7537346e-05,0.00012776256,0.99701035,0.03996995,0.00039041042,0.0011648834,0.00030705333
0.00058320165,0.0,1.7881393e-07,0.0,4.4703484e-07,0.0,1.4901161e-07,0.0,0.0012396574,0.9977995
4.9829483e-05,0.928297,0.015819967,0.014196187,9.3609095e-05,0.0070457757,0.02135694,5.313754e-05,0.9216633,0.0041645467
7.894635e-05,0.033451676,0.0010612607,0.99836254,0.03763023,0.0054320693,0.21854782,6.3985586e-05,0.05653432,0.00041276217
0.0027237535,8.34465e-07,0.00015923381,0.00036156178,1.7881393e-06,2.989173e-05,0.001676023,4.2021275e-05,0.9905703,0.0001501739
0.00032442808,4.1157007e-05,5.543232e-06,2.026558e-06,2.7447939e-05,0.0022116601,0.3478816,2.9802322e-07,0.936523,0.0026352108
0.9487123,3.2782555e-07,0.000495106,4.5865774e-05,4.7296286e-05,0.00039118528,0.007065892,8.222461e-05,0.051372945,0.0028622448
0.55436665,8.940697e-08,0.00016948581,6.386638e-05,8.940697e-07,3.2007694e-05,0.0051469803,0.00015228987,0.85174096,0.00022283196
7.724762e-05,0.0,2.5510788e-05,1.5228987e-05,0.0056167245,6.2286854e-06,0.00393188,0.0,0.99320483,2.9951334e-05
0.002835542,0.12072277,0.0013275146,0.015732408,0.058064193,0.014070779,0.8973526,6.738305e-05,0.0006260574,0.040085644
0.9943626,0.0,1.1742115e-05,1.1920929e-07,2.8908253e-06,3.3944845e-05,0.0038864315,1.3113022e-06,7.170439e-05,4.1872263e-05
0.99339044,0.0,4.2259693e-05,4.4703484e-07,2.115965e-06,6.4343214e-05,0.0013078451,2.4080276e-05,0.00015410781,0.0002718866
0.017577708,3.2484531e-06,0.0021467805,0.0017778575,0.11072621,5.438924e-05,0.00072714686,1.0997057e-05,0.036129534,0.7972584
0.9832535,4.4703484e-07,0.0019737184,5.376339e-05,3.5762787e-06,0.0044802725,0.0028201342,0.032331318,4.8071146e-05,0.0009152889
0.0011686683,0.88283026,0.0076195598,0.0045330226,0.0002156496,0.004631132,0.18816951,0.0015104413,0.049024254,0.04661444
4.7922134e-05,4.23193e-06,0.0010223389,0.9993914,0.94006956,0.0003529191,0.0050421655,0.0,0.0013742447,8.940697e-07
0.0005143881,2.9802322e-06,5.9604645e-08,1.4901161e-07,3.695488e-06,0.00032785535,0.9908085,6.2584877e-07,1.2427568e-05,0.0044971406
0.9891093,5.9604645e-08,0.0008443594,6.8843365e-06,5.9604645e-08,0.00058606267,0.0012741387,0.092536956,3.427267e-05,0.00037667155
0.0029969215,0.015291423,0.9522641,0.0032455921,0.0007068813,0.00040894747,0.0012588203,0.025314301,0.2575836,0.038948506
3.4362078e-05,1.1920929e-07,0.0049964786,5.9604645e-08,3.4570694e-06,0.996785,0.011508346,3.427267e-06,0.0066685975,0.00025635958
0.992623,0.0,2.0563602e-05,4.172325e-07,1.013279e-06,2.5600195e-05,0.0012782514,1.513958e-05,0.0010850728,0.00036853552
0.00010386109,0.00043427944,0.0069243014,0.0014286935,0.0005708635,0.9073765,0.15947881,0.006780654,0.0014287829,0.014740944
0.0002579689,8.940697e-08,7.301569e-06,2.8043985e-05,0.0,3.7550926e-06,0.00029793382,3.1143427e-05,0.996994,2.5600195e-05
4.476309e-05,0.013099939,0.0012329221,0.0055176616,0.0028406084,0.63116544,0.62751067,9.813905e-05,0.07840535,0.021115124
0.00021013618,0.77928495,0.11643228,0.89365923,0.024483472,0.0476335,0.18187755,0.0013267994,0.2213048,0.0017971098
3.0726194e-05,1.2934208e-05,0.008247286,0.00018525124,0.00029423833,0.99973726,0.016121745,0.00037938356,0.013353109,7.098913e-05
0.4976622,0.0015597343,0.13993627,0.0013316572,0.033741802,0.0018237233,0.0107702315,0.0019741952,0.015606552,0.38196743
0.26563385,0.0,3.3676624e-05,5.096197e-06,3.7550926e-05,1.4901161e-06,0.0019080639,1.1920929e-07,0.862244,0.0003093183
0.438254,5.364418e-07,0.000103503466,0.0001861453,6.2584877e-07,3.4600496e-05,0.003012687,0.0005182028,0.8899605,0.0005388558
6.0647726e-05,0.0010171235,0.07965395,0.00047072768,0.0103985965,0.9597581,0.016575903,0.00018709898,0.0077605546,0.0028108656
0.0005674362,0.07752636,0.5239477,0.03684166,7.930398e-05,0.0018143356,0.0054515004,0.00290519,0.96898437,0.0013004541
0.01652798,0.00074887276,0.0352239,0.032911748,0.9258944,0.005619496,0.05534184,1.013279e-06,0.6687939,0.002020657
0.0011085272,0.0020899773,0.0058880746,0.00032275915,0.0022687018,0.7368823,0.15567842,0.00027811527,0.7536656,0.03922209
0.9414354,2.8312206e-06,0.002036363,0.00024178624,9.536743e-07,0.0007406175,0.002139151,0.07460651,0.0041823387,0.006231934
0.8617626,2.9802322e-08,0.0009133518,1.7881393e-06,0.00260216,1.32620335e-05,0.0005221963,1.758337e-06,0.019630045,0.34375304
0.0028899014,7.289648e-05,0.030743212,0.026471674,0.011753261,0.89282537,0.03187856,0.016046613,0.02759695,0.008065432
0.00025609136,0.00030758977,0.9940246,0.019830018,0.12191978,0.0041353106,0.0014539957,0.00022351742,0.8676256,0.0008800924
0.00012892485,0.7176661,0.5550328,0.013548225,0.06717759,0.36339414,0.015731126,0.00067827106,0.2777466,0.015590489
0.005151063,0.16858414,0.015559584,0.1767709,0.35562497,0.078867495,0.51511496,0.00030767918,0.18163463,0.090913326
0.024979323,3.8444996e-06,0.004646033,0.18935007,0.9889976,0.00034180284,0.009296715,2.682209e-07,0.00019958615,0.0006567836
0.008466095,0.00051283836,0.9789779,0.013821334,0.04157746,0.0031360686,0.002218753,0.0041150153,0.0001963377,0.0032579005
0.73949635,0.0,0.00021094084,0.0001039207,3.7312508e-05,1.5079975e-05,0.0015114844,1.8447638e-05,0.6680506,0.0032751262
0.00011172891,0.037103087,0.30527502,0.99772996,0.5867088,0.07016465,0.015067428,2.798438e-05,0.0011871457,2.1904707e-05
0.99706775,0.0,1.2516975e-05,0.0,1.7881393e-07,1.2725592e-05,0.0011498332,3.2484531e-06,0.00014746189,8.675456e-05
0.007943928,0.00014594197,7.778406e-06,1.886487e-05,1.7493963e-05,0.0012524426,0.9601097,5.64456e-05,0.00086176395,0.009094536
0.0002464652,2.9802322e-08,0.0002872646,0.00016102195,0.068087906,0.000116974115,0.010473937,0.0,0.98486805,0.0004618466
0.053327292,5.155802e-06,9.179115e-05,0.9852289,5.185604e-06,0.00013872981,0.0011210442,0.0027775466,6.6936016e-05,5.3852797e-05
0.99416363,0.0,4.1633844e-05,2.0861626e-07,4.4703484e-07,2.8014183e-05,0.0010818839,6.8217516e-05,4.9978495e-05,0.000116467476
0.9812348,8.940697e-08,0.00010806322,0.000112622976,1.4901161e-06,0.0003182292,0.00113675,0.00038069487,0.00020182133,0.00027018785
0.0006250441,8.940697e-08,0.0005505979,4.5746565e-05,0.13573948,4.7683716e-05,0.009589285,0.0,0.97834694,9.813905e-05
0.00011572242,2.026558e-06,0.005805433,0.00013691187,0.00012868643,0.999529,0.015165359,0.0005982518,0.0009364188,4.607439e-05
0.99581426,0.0,2.4914742e-05,2.9802322e-08,4.440546e-06,3.1411648e-05,0.0010254383,1.6093254e-06,2.5957823e-05,9.101629e-05
0.0002347827,5.9872866e-05,0.014946371,0.9971216,0.0011373758,0.0001489222,0.0005133748,9.49204e-05,5.441904e-05,1.8268824e-05
0.97762036,1.1920929e-06,0.001902163,9.089708e-06,6.854534e-07,0.00041499734,0.0021845102,0.0143120885,0.0018490553,0.00383237
0.00044488907,2.0563602e-06,3.129244e-05,1.2844801e-05,0.0,8.85129e-06,9.739399e-05,0.9925314,0.0007389486,0.0060126185
0.0002991855,6.005168e-05,6.1690807e-06,8.636713e-05,1.5854836e-05,0.050129622,0.9487476,6.994605e-05,0.0076725483,0.006446123
0.0003553927,0.0,0.00011476874,4.9710274e-05,1.5497208e-05,6.6161156e-06,0.00068566203,3.874302e-07,0.99602157,4.479289e-05
0.99539745,0.0,1.8239021e-05,2.3841858e-07,3.6656857e-06,3.966689e-05,0.0006530881,2.8908253e-06,7.081032e-05,8.434057e-05
0.22677702,0.00072816014,0.0068074763,0.00024849176,0.00036010146,0.0002912879,0.010391951,0.00093632936,0.48271236,0.52548426
0.00053185225,1.3411045e-06,0.009006888,7.1525574e-05,8.547306e-05,0.999059,0.009619385,0.00074380636,0.00040233135,5.093217e-05
0.0027082562,1.7285347e-06,1.8030405e-05,0.99748003,0.0005635321,3.3974648e-06,0.00051251054,1.013279e-06,0.015877903,5.930662e-06
0.8763151,3.5762787e-07,0.0036430955,4.3570995e-05,0.002551049,0.00014814734,0.0020089447,4.5597553e-05,0.06527662,0.09326556
0.0013595223,0.8951206,0.026981294,0.004057497,0.001411736,0.032354176,0.14055306,0.005060464,0.026328504,0.104159504
0.9908084,0.0,1.9431114e-05,4.4703484e-07,5.364418e-07,2.3245811e-05,0.0018875301,1.7225742e-05,0.001822263,0.0003556311
0.979463,1.7881393e-07,0.00029739738,1.21593475e-05,7.748604e-07,0.00019934773,0.0028076768,0.0048939884,0.0006791651,0.0017697513
0.00015056133,0.0013324916,0.0014044344,0.99966514,0.0035446882,0.0021896362,0.01813209,0.00041386485,0.0027553737,4.6044588e-05
0.98943776,0.0,6.2286854e-06,8.940697e-08,6.2584877e-07,6.1690807e-06,0.002323538,9.23872e-07,0.00632146,0.0003068447
5.9872866e-05,3.1292439e-06,0.005539745,5.1796436e-05,6.017089e-05,0.9987954,0.020653933,0.00045740604,0.0005479455,0.00019487739
0.00053209066,0.8195111,0.037961632,0.022986919,9.202957e-05,0.006935984,0.03559196,0.0037607849,0.90302,0.009635717
0.99593353,0.0,8.404255e-06,8.940697e-08,1.4901161e-06,1.2516975e-05,0.0010981858,4.7683716e-07,0.00036028028,9.614229e-05
0.9954704,0.0,1.04010105e-05,4.7683716e-07,9.536743e-07,5.042553e-05,0.0013908446,4.4107437e-06,0.00010970235,2.1278858e-05
0.0119511485,0.00012931228,1.218915e-05,3.9577484e-05,6.5386295e-05,0.000875473,0.9592829,7.0393085e-05,2.3573637e-05,0.006107837
0.0008339882,5.066395e-07,3.093481e-05,1.8775463e-06,0.0,2.3245811e-06,3.9696693e-05,0.9896294,6.529689e-05,0.0020234287
3.4719706e-05,9.834766e-07,0.0012353361,4.297495e-05,3.5077333e-05,0.9978485,0.06613985,0.00017818809,0.0011484027,0.00019013882
2.0742416e-05,0.95663494,0.059791356,0.0014668703,0.0007427633,0.04171455,0.009608984,4.708767e-05,0.21441028,0.015277296
0.9950344,0.0,0.0001373887,2.3841858e-07,4.172325e-07,0.00016075373,0.0015243888,5.054474e-05,0.00023972988,0.00017791986
0.00041854382,0.0,4.0709972e-05,0.0021083355,2.899766e-05,1.3232231e-05,0.0014499724,1.7881393e-07,0.9959558,4.7683716e-06
0.99504244,0.0,3.2752752e-05,4.7683716e-07,6.2584877e-07,6.6161156e-05,0.0009920895,5.1677227e-05,0.00011268258,0.00014975667
4.5239925e-05,4.3809414e-06,0.00031512976,0.9998269,0.082046956,0.00010868907,0.0027502477,8.34465e-07,0.00015863776,1.758337e-06
0.013140976,3.2186508e-06,0.0003581345,6.991625e-05,2.0980835e-05,0.7587727,0.50895345,0.0042511523,9.36389e-05,0.007885277
0.9584596,4.172325e-07,0.0010979176,6.505847e-05,6.2584877e-07,0.0002721846,0.0011775196,0.07155058,0.00013685226,0.00409469
0.0009778738,0.023992121,0.00016751885,0.00039684772,0.0019754171,0.031839162,0.86074555,4.8607588e-05,0.54868305,0.07742721
0.9157992,2.682209e-06,0.0033960342,0.00010818243,7.1913004e-05,0.0003720224,0.002812624,0.0029857755,0.038724333,0.057513565
0.992962,0.0,1.6748905e-05,1.7881393e-07,8.225441e-06,3.2246113e-05,0.001339376,1.5199184e-06,0.00025361776,0.00025486946
0.99445,0.0,3.322959e-05,4.7683716e-07,2.3841858e-07,4.2438507e-05,0.0010782182,6.583333e-05,8.481741e-05,6.9111586e-05
0.003590852,0.0,1.6868114e-05,1.6063452e-05,9.536743e-06,1.013279e-06,0.0012253225,0.0,0.9898524,2.527237e-05
0.39676332,1.1920929e-07,0.00044181943,6.142259e-05,1.6957521e-05,1.5258789e-05,0.0012603402,9.274483e-05,0.8621186,0.004611075
0.12546572,1.7881393e-07,0.0012823641,5.298853e-05,0.004712075,8.493662e-06,0.0004607737,1.0699034e-05,0.33646965,0.64033383
0.62239385,0.0,2.4229288e-05,7.212162e-06,3.668666e-05,4.261732e-06,0.00096687675,6.556511e-07,0.7460657,0.00038218498
0.0017592907,2.1070242e-05,0.00010186434,0.99894816,0.0002116859,0.00015574694,0.0012542605,0.00013148785,0.0014419258,4.044175e-05
0.120414585,0.0003465414,0.0007543266,0.00014486909,8.940697e-08,0.0003363788,0.026830792,0.032584637,0.9036952,0.01137796
7.170439e-05,0.00020045042,0.0014812946,0.9994357,0.00017279387,7.8737736e-05,0.0006324649,1.8924475e-05,0.038923204,3.3974648e-06
0.00012406707,1.2546778e-05,0.0001077652,0.99980086,0.00051254034,3.9964914e-05,0.0013231933,1.5616417e-05,0.00045523047,4.4703484e-06
0.9760673,7.1525574e-07,0.00076925755,0.00012505054,5.364418e-07,0.0009441674,0.0018338263,0.02790752,0.0009189248,0.0013501942
0.061671346,0.0,0.00017231703,1.0788441e-05,0.3494997,6.854534e-06,0.0012117922,0.0,0.60819227,0.00042006373
0.000103503466,0.0071077347,0.008133888,0.83513165,0.9864258,0.04028654,0.43111217,1.4901161e-06,0.00042688847,0.00034710765
0.99689484,0.0,2.115965e-06,0.0,5.066395e-07,7.0929527e-06,0.0009407103,2.9802322e-07,5.9247017e-05,8.046627e-06
0.00039070845,1.0728836e-06,8.895993e-05,0.00010421872,3.33786e-06,1.8626451e-05,0.0021326244,4.887581e-06,0.9937823,0.00018206239
0.009423286,2.9802322e-08,0.00051772594,0.00033593178,0.00019726157,2.503395e-05,0.003281355,2.682209e-07,0.98227215,4.068017e-05
0.00015097857,0.0,2.3543835e-06,5.990267e-06,8.6426735e-06,7.4505806e-07,0.0022530258,0.0,0.9962934,8.165836e-06
0.0010334849,0.88957477,0.025409967,0.00085288286,8.702278e-06,0.0015483499,0.0075466335,0.0028020442,0.41319537,0.11329654
0.00042557716,5.751848e-06,0.0004927516,0.99638844,0.825374,0.00042402744,0.0058232546,4.172325e-07,0.00038188696,9.715557e-06
8.907914e-05,0.01341638,0.30401826,0.015428066,0.028488845,0.9895527,0.013987631,0.0012129545,0.0068176985,0.00057810545
0.002138555,6.1392784e-06,0.0034680068,0.00012281537,5.441904e-05,0.9944682,0.05963272,0.0026905537,0.0003796816,0.00041279197
3.2365322e-05,1.66893e-05,0.006504804,0.0018197298,0.0011484921,0.99899894,0.03601727,0.00058212876,0.0011560917,7.751584e-05
0.9837866,6.854534e-07,0.0005339384,0.00012251735,3.874302e-07,0.00093752146,0.0015883148,0.016839862,0.002641499,0.0008136928
0.00034049153,0.0,7.748604e-07,7.6293945e-06,1.4901161e-07,1.0430813e-06,0.0031127334,0.0,0.9977744,1.4305115e-06
0.0032368004,0.0,1.1384487e-05,7.44164e-05,1.013279e-06,3.1292439e-06,0.0024408102,1.7881393e-07,0.99426496,8.5532665e-06
0.0015705526,1.1920929e-07,0.00016081333,0.00010550022,1.3113022e-06,1.6748905e-05,0.0005505681,1.7136335e-05,0.9934449,9.557605e-05
0.07277459,0.0,5.018711e-05,0.00013136864,1.4305115e-06,7.5101852e-06,0.0021996498,4.142523e-06,0.9740228,5.8352947e-05
0.00023430586,0.0,1.9669533e-06,1.0639429e-05,1.1026859e-06,4.4703484e-07,0.0005544126,2.9802322e-08,0.9965031,3.3557415e-05
0.0076653957,0.808817,0.06277117,0.02735588,0.008322686,0.048702687,0.15966555,0.0077596307,0.06301099,0.09468463
7.992983e-05,0.000562191,0.014318436,0.99841464,0.0033666492,0.00051280856,0.0012252331,1.8775463e-05,0.024902225,6.377697e-06
0.9956989,0.0,5.4329634e-05,2.0563602e-06,4.7683716e-07,0.00031766295,0.0013231337,0.0003040731,0.0011402965,0.0001488328
0.0018419623,0.0,5.38826e-05,3.683567e-05,7.212162e-06,8.672476e-06,0.003712535,2.682209e-07,0.99265134,5.2571297e-05
0.8789686,0.0,9.864569e-06,8.6426735e-07,5.6028366e-06,3.1292439e-06,0.0008607805,3.2782555e-07,0.3607909,2.2888184e-05
0.0010343492,0.3881476,0.012424558,0.016090214,0.00025764108,0.02104503,0.06637138,0.0036465228,0.92488,0.016493171
0.4121296,0.002513796,0.0070509315,0.0007264912,0.0038441718,0.004966527,0.5995532,0.0066367686,0.00042301416,0.028090835
0.9561844,0.0,0.0015205145,3.5762787e-07,0.00055870414,0.00019684434,0.0044333637,9.030104e-06,0.00035703182,0.035049975
0.99514747,0.0,5.096197e-06,8.940697e-08,1.0728836e-06,8.314848e-06,0.0014204681,1.5199184e-06,0.00045728683,7.468462e-05
0.97694325,5.9604645e-07,0.0005349517,1.6242266e-05,1.4990568e-05,0.00051772594,0.0046215653,0.002102077,0.010858446,0.008235216
0.94085014,1.66893e-06,0.00053858757,6.1154366e-05,2.0861626e-07,0.00031206012,0.0027868152,0.08090916,0.011137009,0.009067893
0.006109208,0.18049783,0.9330679,0.006543666,0.030809015,0.0076873302,0.0077424943,0.004600674,0.009380549,0.021860689
0.037857205,3.2782555e-07,0.0041546524,0.00038975477,9.134412e-05,8.9645386e-05,0.007137239,2.3007393e-05,0.9715616,0.00036290288
0.0030346215,0.6693828,0.4757582,0.18761703,0.069422066,0.086619705,0.047800332,0.0031120777,0.13140318,0.018173367
0.99457026,0.0,2.8908253e-06,2.9802322e-08,6.3180923e-06,3.516674e-06,0.0009380579,1.1920929e-07,0.0005290508,4.3153763e-05
0.9807488,0.0,6.0498714e-06,4.172325e-07,2.2798777e-05,3.993511e-06,0.0011463463,1.1920929e-07,0.009051919,0.00026237965
0.00010612607,0.16273245,0.28728986,0.9959377,0.16878638,0.06233239,0.023539543,0.00020098686,0.0005365014,4.929304e-05
0.00015732646,0.9613911,0.03710401,0.002549231,0.0002784431,0.019688398,0.021496862,0.0002503991,0.05257675,0.021995306
0.0038102567,0.0,3.6805868e-05,4.6163797e-05,1.4603138e-05,2.3841858e-06,0.0010555685,4.172325e-07,0.9850887,0.00030893087
0.9970105,0.0,4.5001507e-06,0.0,1.1920929e-07,3.3974648e-06,0.0012741983,4.7683716e-07,0.00010380149,6.2435865e-05
0.00041785836,3.874302e-07,4.3988228e-05,0.00019961596,2.6524067e-05,2.7477741e-05,0.005004674,7.4505806e-07,0.99172056,0.00014901161
0.00033658743,5.9604645e-08,0.0014514029,9.3489885e-05,0.7108183,6.851554e-05,0.015532017,0.0,0.9716865,0.00018197298
0.9904194,2.9802322e-08,0.00038746,4.053116e-06,4.4703484e-07,0.0004120171,0.0012023449,0.0033096373,0.00014683604,0.00038656592
0.00011071563,0.00016456842,0.0054227114,0.00041899085,0.014387935,0.9891231,0.099681616,3.3527613e-05,0.8707831,0.0038592517
0.00027021766,0.31038725,0.43529084,0.1167261,0.1525335,0.9880661,0.026377559,0.0011201799,0.7122414,0.0010116398
0.09578577,3.8206577e-05,0.0009900033,0.9533032,0.009717435,0.00013008714,0.002841711,0.00035068393,0.0017650723,0.0014413297
0.9865269,1.4901161e-07,0.00051245093,3.5762787e-05,1.7881393e-07,0.0007273853,0.0010046065,0.022174954,0.0003273189,0.0004402697
0.055951923,4.7385693e-06,0.00049832463,1.1593103e-05,0.0,3.129244e-05,0.00033837557,0.9487396,0.00029465556,0.011655241
0.0130832195,0.00085407495,0.9862939,0.00052675605,0.0056209266,0.00026279688,0.0007224977,0.0019869208,0.01742506,0.010770738
0.6204513,1.0043383e-05,0.0011604726,0.00016763806,0.0,0.00013104081,0.0015794337,0.72040206,0.0026664436,0.038507998
0.9955411,0.0,2.5779009e-05,3.5762787e-07,1.1026859e-06,5.4061413e-05,0.0007594228,1.7911196e-05,0.00013756752,0.00013023615
2.5331974e-05,0.6308005,0.010835379,0.99199927,0.02244094,0.03934163,0.48100644,0.00077342987,0.6072509,0.00058433414
0.9947041,0.0,5.429983e-05,2.9802322e-08,7.1525574e-07,6.16312e-05,0.0011089146,4.8041344e-05,2.7686357e-05,0.00047406554
0.6224394,5.364418e-07,0.00086298585,6.181002e-05,2.771616e-06,3.1262636e-05,0.0032965243,0.0003068745,0.80214095,0.0010095239
0.0013075471,0.0017109215,1.2367964e-05,2.9623508e-05,0.0009223223,0.0017728806,0.93872035,8.6426735e-07,0.0046935678,0.077234656
0.00020438433,6.1392784e-05,0.00019919872,0.99964666,0.0017182529,0.000841558,0.010288835,0.0009995103,5.5998564e-05,4.2438507e-05
0.99504924,0.0,1.3709068e-06,0.0,1.5199184e-06,1.1324883e-06,0.0011309683,5.9604645e-08,0.00023254752,4.8428774e-05
0.9977324,0.0,1.758337e-06,0.0,2.3841858e-07,2.8312206e-06,0.0007697046,1.4901161e-07,4.2557716e-05,1.4901161e-05
1.7642975e-05,7.915497e-05,0.012854248,0.0015117824,0.0026809871,0.9993601,0.021871567,0.00033283234,0.0011772811,0.00012487173
0.006369114,2.0891428e-05,9.521842e-05,0.0059812963,1.4662743e-05,0.006039828,0.009248108,0.0013000071,0.9427075,0.002046436
0.0002258122,1.7136335e-05,3.9339066e-06,0.00073608756,2.4735928e-06,0.00036662817,0.053777546,3.2782555e-06,0.9872583,0.00011199713
0.01106447,6.854534e-07,8.824468e-05,0.00049069524,7.122755e-06,4.8547983e-05,0.009706736,8.940697e-06,0.98477685,0.00014832616
9.101629e-05,0.08679286,0.8946079,0.0042444766,0.13168597,0.013513893,0.0057033002,9.4771385e-06,0.03837177,0.002634555
0.9919647,0.0,3.272295e-05,4.172325e-07,2.3841858e-07,0.00017681718,0.0060793757,0.00012770295,0.000639081,0.00012204051
0.00026071072,0.0,0.0,0.0,9.23872e-07,0.0,0.0,0.0,0.0015057623,0.9980895
0.012044907,1.7881393e-07,0.026054442,0.0039205253,0.9970557,8.952618e-05,0.003244102,0.0,0.00012758374,0.00020453334
0.99474156,0.0,6.3955784e-05,5.9604645e-08,2.9802322e-07,2.849102e-05,0.0011638403,2.1398067e-05,0.00037145615,0.0003362298
0.78498244,6.2584877e-07,0.0019857883,8.5532665e-06,0.0011395812,2.6077032e-05,0.0010848641,7.289648e-05,0.024115115,0.29672486
0.9952766,0.0,1.6897917e-05,4.4703484e-07,2.2649765e-06,6.443262e-05,0.001021415,1.0550022e-05,0.0019803941,0.00016695261
0.0009835362,0.0,2.0861626e-07,0.0,2.115965e-06,0.0,8.940697e-08,0.0,0.0024801493,0.99758697
0.10823238,2.9802322e-07,0.00037765503,7.82907e-05,6.0915947e-05,8.946657e-05,0.0038270056,0.00019669533,0.84513426,0.014712065
0.92111063,2.9802322e-07,0.0005710423,2.6375055e-05,5.733967e-05,0.00020116568,0.007153809,5.2303076e-05,0.09537777,0.011180818
0.9968446,0.0,1.4007092e-06,0.0,5.155802e-06,2.95043e-06,0.0006530285,2.9802322e-08,0.00017136335,3.8087368e-05
6.8843365e-05,3.1262636e-05,2.0563602e-06,4.211068e-05,8.910894e-06,0.0188815,0.9821581,2.1725893e-05,0.0001192987,0.0075322688
6.315112e-05,1.4215708e-05,0.011309445,2.0176172e-05,0.0010059178,0.99718606,0.01699695,9.8735094e-05,0.0043650568,0.00049868226
0.077141374,1.2397766e-05,0.00014853477,0.9830285,6.5863132e-06,0.000266999,0.0015084743,0.018552631,3.5315752e-05,0.00031650066
0.99434596,0.0,0.00014442205,1.4901161e-07,9.23872e-07,0.00010830164,0.00078222156,4.9620867e-05,4.2527914e-05,0.0002399385
0.00092047453,1.3768673e-05,0.00053831935,0.9990749,0.0025116503,6.5773726e-05,0.0013101101,2.604723e-05,0.0001437664,1.1950731e-05
6.7055225e-05,0.12770474,0.05188611,0.9982159,0.0067670047,0.0093563795,0.020827353,0.00041905046,0.028464377,8.839369e-05
0.9932121,0.0,5.415082e-05,4.172325e-07,2.9802322e-07,4.2170286e-05,0.000900507,0.0001282394,7.8231096e-05,0.00019207597
0.0008018613,0.0007608533,0.04737547,0.017502367,0.5710162,0.9902632,0.04606074,3.6805868e-05,0.00015887618,0.00020742416
0.00058454275,8.291006e-05,0.0014016628,0.99952734,0.00038444996,0.00014126301,0.0014349222,9.652972e-05,2.425909e-05,5.7816505e-06
0.00019356608,0.0,3.120303e-05,0.00014144182,1.6391277e-06,1.0609627e-05,0.0018013716,1.7881393e-07,0.99783087,1.8775463e-06
0.071801335,0.00011354685,0.0065733492,0.8033228,0.0062139034,0.0006993413,0.0027243793,0.010819405,0.10075995,0.022141367
0.03605032,0.013829678,0.014797419,0.0001258254,0.0017539263,0.001259774,0.020381331,0.0011832714,0.061482847,0.86782134
0.00028052926,9.75132e-05,0.00020036101,0.9999082,2.065301e-05,5.143881e-05,0.0014281869,0.00028580427,3.4213066e-05,4.529953e-06
0.008847028,0.0022746027,5.8054924e-05,0.0002452731,2.8759241e-05,0.0051088035,0.6651214,0.00010353327,0.6777022,0.012372911
0.99272126,0.0,5.6296587e-05,6.2584877e-07,2.9802322e-07,5.942583e-05,0.0011791885,0.00020420551,0.00022274256,0.00034308434
0.99711156,0.0,5.2154064e-06,0.0,5.9604645e-08,5.3942204e-06,0.0010709465,2.2649765e-06,8.3208084e-05,3.951788e-05
0.36547786,8.6426735e-06,0.0021823347,0.00022855401,0.0,0.0007738173,0.002388686,0.9158174,0.0080498755,0.013172537
0.027124703,0.0010774136,0.00050735474,0.024802,2.3335218e-05,0.02370137,0.63140464,0.44510317,0.00021475554,0.009484172
6.181002e-05,2.926588e-05,4.0888786e-05,0.9991157,0.0007865131,7.212162e-06,0.0011868775,4.172325e-07,0.7119809,5.185604e-06
0.0012615323,0.0012047291,0.07151389,0.00051894784,0.01137495,0.97694516,0.08699253,0.0012900829,0.087804526,0.02293247
0.014958173,5.9604645e-08,0.00025951862,6.145239e-05,0.0005918145,1.7374754e-05,0.001662612,3.0696392e-06,0.9246405,0.015127897
0.00037917495,0.102599084,0.42200187,0.09042424,0.057900876,0.021073163,0.03246236,0.00037300587,0.95283765,0.005498469
0.79168475,4.8577785e-06,0.0013490319,0.00016149879,0.0,0.0001565814,0.0011957288,0.7233077,0.0002181232,0.0042996705
0.003804624,8.940697e-08,0.00021642447,0.00023108721,0.00025334954,2.8938055e-05,0.0032524467,1.1622906e-06,0.981168,0.00063851476
0.96863663,1.1920929e-06,0.0018411279,0.0001937151,2.026558e-06,0.0014665425,0.0016770065,0.019250095,0.0014085174,0.0017276704
0.98288244,8.940697e-08,3.7044287e-05,4.082918e-06,1.1026859e-06,5.6922436e-05,0.0034741163,3.4928322e-05,0.02069208,0.00030207634
0.0039001405,8.6933374e-05,0.99582434,0.0004989803,0.0243527,0.00021234155,0.0005193651,0.0005812049,0.0055455565,0.0037806034
0.99486923,0.0,0.000118911266,8.6426735e-07,1.5199184e-06,0.00021398067,0.00088849664,0.000269562,0.00024473667,0.0005173981
0.0005195737,3.33786e-06,1.8119812e-05,0.00024458766,7.4505806e-07,5.3167343e-05,0.0036064684,2.0682812e-05,0.9905168,0.00023004413
0.2731673,5.9604645e-08,6.7055225e-05,1.719594e-05,2.4437904e-06,3.695488e-06,0.0029591918,4.351139e-06,0.93429935,0.00039851665
0.975646,2.9802322e-08,0.00060257316,2.2649765e-06,0.0009968579,0.00041380525,0.0039336085,2.682209e-06,0.00026279688,0.0009926856
0.0014039576,0.0,6.452203e-05,6.389618e-05,2.643466e-05,4.5001507e-06,0.0011381507,2.3841858e-07,0.99158955,0.00011304021
0.013295084,0.0,5.7935715e-05,1.13248825e-05,0.00013563037,3.8146973e-06,0.0029320717,0.0,0.9672836,0.000109016895
0.0020304024,1.8239021e-05,0.9832078,0.00046557188,0.22722536,0.00014451146,0.00067928433,0.00010186434,0.002132088,0.007766694
0.00017213821,0.0,4.1037798e-05,5.364418e-07,0.016278386,3.3318996e-05,0.024997026,0.0,0.97332555,9.10759e-05
0.037914515,8.136034e-06,0.052021742,0.0010855496,0.9660381,0.00027441978,0.011457622,6.2584877e-07,0.0070154965,0.030893207
0.37025595,0.0,5.13494e-05,2.8550625e-05,1.4811754e-05,2.5331974e-06,0.0011629462,3.5762787e-07,0.86787736,0.00022035837
0.00022009015,0.0,8.881092e-06,3.2395124e-05,1.5199184e-06,2.1457672e-06,0.0008789003,0.0,0.9970976,7.867813e-06
0.99467814,0.0,3.0368567e-05,1.7881393e-07,1.4305115e-06,4.285574e-05,0.0012101829,9.894371e-06,0.00016522408,0.00024977326
0.0006220639,1.1920929e-07,0.00011476874,0.00016066432,0.0001810193,6.303191e-05,0.013819754,5.9604645e-08,0.9907422,6.0260296e-05
8.016825e-05,0.0005761087,0.09489745,0.0033886433,0.0037486851,0.99906385,0.013400316,0.0007658899,0.4643335,0.00015586615
0.17613104,6.2584877e-07,0.0010697246,0.00017789006,2.3841858e-07,6.9111586e-05,0.00459069,0.0007223785,0.9607719,0.00017648935
0.54214066,0.0,4.044175e-05,7.033348e-06,1.013279e-06,3.7252903e-06,0.0021842718,6.198883e-06,0.7942512,0.00037130713
0.993155,0.0,3.3974648e-06,8.940697e-08,6.8843365e-06,4.440546e-06,0.00078573823,1.1920929e-07,0.0008273721,0.00018495321
0.00030362606,0.0,7.5101852e-06,1.3649464e-05,5.7816505e-06,2.026558e-06,0.0031076968,0.0,0.995935,7.987022e-06
0.00068974495,8.225441e-05,0.9982557,0.000667274,0.032145053,8.934736e-05,0.00011906028,0.00014740229,0.0012471378,0.0020496547
0.9959036,0.0,9.715557e-06,8.940697e-08,3.8146973e-06,2.8640032e-05,0.0011010468,7.1525574e-07,9.4652176e-05,0.00012737513
0.9945431,0.0,1.1771917e-05,2.9802322e-07,7.748604e-07,4.1425228e-05,0.002197355,5.6922436e-06,0.0016646087,0.00026148558
0.98650813,1.7881393e-07,0.00085037947,1.1950731e-05,4.172325e-07,0.00048044324,0.00093984604,0.03162816,0.000119149685,0.0009266436
0.00011226535,0.31422564,0.44620723,0.020334512,0.16048369,0.8739667,0.015408069,5.939603e-05,0.76306427,0.0014648736
0.9873439,1.7881393e-07,0.0002631545,4.428625e-05,1.5199184e-06,0.00099805,0.0017513633,0.0008725524,0.0017256141,0.00041157007
5.567074e-05,0.924875,0.00086033344,0.020023853,8.314848e-06,0.0028412938,0.07593441,9.030104e-05,0.9480291,0.0027220547
0.00023040175,0.9150523,0.08604428,0.0029061139,0.008191317,0.096937865,0.03157243,0.0003721714,0.05257207,0.047285944
0.072140574,0.0,0.0001167357,5.0216913e-05,1.090765e-05,8.106232e-06,0.0023495555,1.5199184e-06,0.96129876,0.00010082126
0.00042390823,2.0861626e-06,0.00070890784,0.99702317,0.8819593,0.00016009808,0.0022616684,0.0,0.00051534176,4.1127205e-06
0.9900857,8.940697e-08,0.00021123886,4.8577785e-06,2.115965e-06,0.00069227815,0.0037184656,0.00019744039,0.002188772,0.00017756224
0.0047342777,2.9802322e-08,2.5570393e-05,1.7911196e-05,6.2584877e-07,6.377697e-06,0.004035592,2.9802322e-07,0.98404855,6.353855e-05
0.004521519,0.00059461594,8.46386e-06,2.2858381e-05,1.8417835e-05,0.0018168986,0.95390326,5.671382e-05,0.001775682,0.012792617
0.0001359582,4.2438507e-05,0.00013101101,0.9998498,0.00013941526,4.9829483e-05,0.0016853511,5.877018e-05,0.0001964271,5.811453e-06
1.2844801e-05,0.00030007958,1.7881393e-07,5.2899122e-05,7.4505806e-07,0.0012496114,0.9904446,1.0818243e-05,0.00014719367,0.008122176
0.9726129,9.23872e-07,0.00059226155,4.068017e-05,4.172325e-07,0.00040766597,0.0026940405,0.013124615,0.012492418,0.0028773546
0.98560774,1.7881393e-07,0.0008290708,1.0818243e-05,1.1920929e-07,0.0006148219,0.0010939538,0.027521193,8.317828e-05,0.00032418966
0.00042822957,1.4901161e-07,0.0004938245,2.3841858e-07,4.7266483e-05,0.7704252,0.15548158,9.325147e-05,4.3809414e-06,0.008024186
0.00016528368,5.9604645e-08,1.707673e-05,6.276369e-05,4.7683716e-07,4.1127205e-06,0.0007570088,4.7683716e-07,0.9970081,1.2606382e-05
0.0031468272,0.08411452,0.16929114,0.71424836,0.0030451417,0.007981688,0.026144058,0.00041145086,0.93980515,0.00038799644
0.72505444,4.4703484e-07,0.0003939569,0.00041756034,8.365512e-05,3.8832426e-05,0.0020031333,0.000115185976,0.66174775,0.016950667
6.4224005e-05,0.90386224,0.0015737414,0.035016656,6.407499e-05,0.009614944,0.10430965,0.00012370944,0.93021715,0.006620735
0.9795358,3.5762787e-07,0.0021919608,4.929304e-05,9.357929e-06,0.0038014352,0.00180915,0.02289635,8.240342e-05,0.0019423068
0.9837062,2.3841858e-07,0.00032493472,2.4706125e-05,1.4901161e-07,0.00021830201,0.0009793937,0.008272946,0.00059619546,0.00070002675
0.0004875064,3.0010939e-05,0.00019443035,0.9998194,0.000254184,5.8621168e-05,0.0011497736,9.602308e-05,0.00020951033,8.881092e-06
0.99760187,0.0,4.3213367e-06,0.0,8.940697e-08,3.0696392e-06,0.0008941591,1.4603138e-06,3.3646822e-05,2.2500753e-05
0.008672923,2.1904707e-05,0.032227933,0.0010342896,0.002445668,0.00039753318,0.027344167,1.6182661e-05,0.9571953,0.002104789
0.0048769116,1.04010105e-05,5.352497e-05,3.0249357e-05,0.0,2.8312206e-06,9.3728304e-05,0.98595476,0.005792409,0.021410227
7.259846e-05,0.0,7.480383e-06,2.670288e-05,2.1755695e-06,2.413988e-06,0.0011084974,0.0,0.9981338,2.2649765e-06
0.0006702244,2.2947788e-06,2.7805567e-05,0.99960995,0.0012538731,8.85129e-06,0.0011946261,2.771616e-06,0.0003208518,3.3080578e-06
0.00048413873,0.50379705,0.10436365,0.032070786,0.69545627,0.12690783,0.21457806,7.5399876e-06,0.0026013553,0.007219672
0.009758115,0.0,1.3321638e-05,0.0,3.5762787e-07,0.0,1.2218952e-06,8.940697e-08,0.0029571056,0.9873401
0.0013278127,2.18153e-05,0.00028011203,0.9989299,0.001485318,7.852912e-05,0.0015081465,0.00016230345,0.00033980608,7.170439e-05
0.0020294785,1.1116266e-05,0.00012493134,0.9992936,0.0007852316,4.0769577e-05,0.0018458962,1.9967556e-05,0.00012740493,5.364418e-06
0.0019485354,0.0,2.0980835e-05,0.00014984608,2.1457672e-06,6.5863132e-06,0.0021075308,1.2814999e-06,0.99456394,2.1338463e-05
0.9395211,0.0,7.715821e-05,8.225441e-06,1.1771917e-05,2.2113323e-05,0.0023997426,1.6212463e-05,0.10909426,0.0018137693
0.99017596,0.0,0.00010755658,3.427267e-06,5.9604645e-08,6.455183e-05,0.0007968545,0.0025464296,0.00029027462,0.00059497356
0.00060361624,0.011061966,0.00021097064,0.041956276,8.183718e-05,0.026478529,0.7367006,0.18623659,0.0006055534,0.065802604
0.12807506,2.0861626e-07,0.0002707541,0.00043824315,0.00015759468,1.7672777e-05,0.003143847,1.2218952e-06,0.9491365,0.00026157498
0.99340975,0.0,3.182888e-05,2.9802322e-07,3.784895e-06,3.4928322e-05,0.0007317662,1.04904175e-05,0.00024107099,0.00053721666
0.9927341,0.0,0.00030824542,1.8775463e-06,1.3113022e-05,0.00049751997,0.00069358945,0.00014540553,3.105402e-05,0.00041681528
0.0016997159,3.0368567e-05,0.00034865737,0.0002631545,0.0,0.0010558963,0.0018006265,0.9552052,0.009229809,0.09321663
0.98959196,2.9802322e-08,0.0003631711,6.2584877e-07,8.34465e-07,0.00026842952,0.0019825697,0.00021010637,0.00012996793,0.0005302727
0.0010384917,1.4901161e-07,1.168251e-05,3.606081e-06,0.0,4.053116e-06,2.82228e-05,0.989901,0.00012907386,0.0009492636
0.00014057755,0.00045007467,0.9923699,0.007856995,0.02066195,0.0012780726,0.00091281533,9.9390745e-05,0.9357701,0.0006226003
0.00089776516,0.000120937824,0.9972597,0.0013362169,0.057197303,0.00026014447,0.00027167797,0.00018745661,0.013324112,0.0019214153
0.9884169,5.9604645e-08,0.00057023764,9.23872e-07,9.140372e-05,0.0003257692,0.0012693703,1.7881393e-05,2.1189451e-05,0.00030612946
8.761883e-06,6.556511e-07,0.00425604,1.49309635e-05,2.0980835e-05,0.99970275,0.010107636,7.754564e-05,0.0032327473,2.1666288e-05
0.33516863,6.735325e-06,0.0032103062,4.6789646e-06,0.0,4.3928623e-05,0.00029155612,0.8104017,0.00013011694,0.02190736
0.98576236,4.172325e-07,0.00034475327,2.026558e-05,2.3841858e-07,0.00031787157,0.0014755428,0.010144085,0.0054750443,0.0009788275
0.0006188154,0.063361794,0.89160514,0.027081072,0.30609867,0.017642736,0.012568712,8.037686e-05,0.042461693,0.005745679
0.020388573,0.0011452734,0.98089063,0.013021767,0.0024598837,0.005136311,0.0018293858,0.23522827,0.00014385581,0.012440801
1.0550022e-05,0.58644676,0.0029884279,0.9993959,0.020751625,0.045058638,0.66349185,0.00093743205,0.05305752,0.00036016107
0.00016525388,8.821487e-06,0.00053441525,0.9991346,0.020492584,4.813075e-05,0.0015699565,1.3113022e-06,0.056003153,7.033348e-06
4.1007996e-05,0.9650159,0.0012558997,0.028993964,4.172325e-07,0.0013367832,0.01364854,0.0032598376,0.9040501,0.013554901
4.3094158e-05,0.05829984,0.5794277,0.99560297,0.07529506,0.03448379,0.0026361942,0.00012293458,0.004155904,2.2292137e-05
0.99393976,0.0,0.00012350082,7.748604e-07,1.7285347e-06,0.00023669004,0.0009114444,0.00012621284,4.7832727e-05,0.00022089481
0.094055414,5.9604645e-08,0.00016373396,2.1666288e-05,0.9416439,1.49309635e-05,0.0034863055,0.0,0.036662668,0.00062868
2.4825335e-05,0.94651,0.0028425455,0.0055624247,7.7039e-05,0.0063528717,0.044923425,1.2814999e-05,0.9271425,0.005001545
0.00035989285,5.9604645e-08,1.2874603e-05,3.6597252e-05,4.261732e-06,9.685755e-06,0.01007542,2.9802322e-08,0.9948657,2.592802e-05
0.9646998,7.4505806e-07,0.0018702745,0.00025758147,3.5762787e-07,0.00081169605,0.0006015897,0.072215945,0.00021854043,0.0015325844
0.9964907,0.0,4.9471855e-06,5.9604645e-08,2.8312206e-06,1.3589859e-05,0.0007735491,2.9802322e-07,0.00010216236,3.6150217e-05
0.000117212534,0.009595662,0.0043651164,0.9930381,0.00045478344,0.0004646182,0.0064614713,7.3343515e-05,0.92992926,7.084012e-05
0.8115791,5.662441e-07,0.006231189,9.179115e-06,1.1563301e-05,0.000118494034,0.005738646,0.00010344386,0.41410735,0.0018020868
0.0023577511,0.00025820732,0.9956784,0.009761691,0.022313207,0.0005790591,0.00035613775,0.0007234812,0.00013697147,0.0012313426
0.0003877282,0.0011683702,0.9971566,0.004128635,0.060136914,0.0004504621,0.00041759014,0.0002040267,0.009611547,0.0017673969
0.983406,2.9802322e-08,0.00017398596,4.2647123e-05,1.6361475e-05,0.0005300641,0.0015467703,5.364418e-05,0.0022530854,0.00053551793
0.0040334165,5.9604645e-08,0.0011712313,0.00014898181,6.2316656e-05,3.7521124e-05,0.0020593405,8.016825e-06,0.9896858,0.00021287799
0.051810026,0.00088584423,0.90886366,0.001054585,0.00309214,0.0015184581,0.0036949515,0.0033192635,0.001054585,0.004118234
0.0039283037,0.61832577,0.20487338,0.0046519637,0.011959106,0.014618099,0.043003082,0.0017392337,0.091704756,0.09703988
0.99528646,0.0,1.6897917e-05,2.9802322e-08,1.4007092e-06,1.475215e-05,0.0011081398,1.4603138e-06,0.00027164817,0.0002462566
0.9965984,0.0,3.4421682e-05,1.7881393e-07,4.61936e-06,8.672476e-05,0.0009937286,1.4215708e-05,0.00031363964,0.0002810061
0.015072495,0.00022986531,0.9511136,0.00802508,0.22560847,0.0032563806,0.011396378,0.0007649958,0.5393785,0.009919107
0.00017142296,6.467104e-06,4.643202e-05,0.99876356,0.0010579526,5.155802e-06,0.00093722343,9.834766e-07,0.1764046,9.208918e-06
0.90780514,0.0,1.937151e-05,5.066395e-07,4.7683716e-07,1.6093254e-06,0.0017317235,1.5497208e-06,0.29908302,0.0002616048
0.3749606,6.2584877e-07,0.00010058284,0.0005055964,6.2584877e-07,0.00015568733,0.008880287,0.0014959872,0.89587235,0.00045636296
8.8483095e-05,0.91412085,0.10149342,0.009031504,0.01297158,0.07437134,0.03214383,0.000108361244,0.18473017,0.036314815
7.9482794e-05,6.5773726e-05,0.00023970008,0.9999002,0.0005969107,0.00010097027,0.002783239,1.1950731e-05,0.00014516711,1.66893e-06
0.9946412,0.0,0.00018677115,7.748604e-07,1.5497208e-06,0.0002657771,0.0006478727,0.0004976392,4.6879053e-05,0.00041478872
0.99406326,0.0,2.3633242e-05,0.0,1.7881393e-07,1.6063452e-05,0.0019400418,4.2676926e-05,0.0001718998,0.00021833181
0.9964267,0.0,3.1590462e-06,0.0,2.3841858e-07,4.082918e-06,0.0020290315,1.1026859e-06,7.390976e-06,6.8843365e-06
0.8882513,1.4901161e-07,0.00041091442,5.3942204e-06,0.00012564659,1.9878149e-05,0.00077694654,7.015467e-05,0.01414898,0.17437297
5.725026e-05,0.9523885,0.008121729,0.011974186,2.8282404e-05,0.008978546,0.023290902,0.00019082427,0.932554,0.0059904456
2.7894974e-05,9.5039606e-05,0.014749676,0.00022542477,0.00049859285,0.9989233,0.02764535,0.00047427416,0.04254785,0.00052574277
0.99555665,0.0,1.3113022e-06,1.1920929e-07,1.1920929e-06,2.8908253e-06,0.001195699,5.9604645e-08,0.0005315542,2.5123358e-05
0.0008929372,0.49775022,0.16114363,0.00575456,0.009970963,0.0392282,0.032264292,0.0108139515,0.013762921,0.2682757
0.13525477,6.67572e-06,0.017730206,1.758337e-06,4.798174e-06,2.1457672e-06,0.00014159083,0.009788424,0.0074003935,0.7183196
0.00045093894,3.2782555e-07,0.03500676,0.0013286769,0.97076756,9.196997e-05,0.0069662035,0.0,0.9794977,0.0001128912
2.1517277e-05,3.2782555e-07,0.0011275709,7.599592e-06,8.672476e-06,0.9943899,0.03418708,8.2850456e-05,0.00058731437,0.00016880035
0.9818067,0.0,4.0382147e-05,1.0728836e-06,5.108118e-05,2.1070242e-05,0.0019479394,1.5497208e-06,0.0023144186,0.00065621734
0.9295331,2.5331974e-06,0.005525142,2.2500753e-05,0.00025478005,0.0006956458,0.0067697465,0.0018886626,0.0011117756,0.049724102
0.00032445788,0.93991953,0.047059983,0.026858628,0.052646637,0.10635874,0.25152954,0.00015684962,0.045925528,0.034940243
0.98709404,5.9604645e-08,9.498e-05,3.4570694e-06,4.6789646e-06,0.00062161684,0.010694325,0.00012564659,9.1046095e-05,9.548664e-05
0.024454772,0.0,0.0005133748,4.5776367e-05,2.9951334e-05,1.2904406e-05,0.0040646493,9.536743e-07,0.9793947,8.621812e-05
2.759695e-05,0.00062412024,5.4836273e-06,0.00021862984,0.00013491511,0.009454161,0.9537108,6.7055225e-06,0.16284454,0.035227448
0.9952476,0.0,4.9471855e-06,5.9604645e-08,3.874302e-07,3.0696392e-06,0.00070747733,1.5199184e-06,0.00013700128,9.36687e-05
0.00012427568,3.0100346e-06,0.011241972,5.0127506e-05,7.271767e-05,0.9994089,0.010709077,0.00060752034,0.009061456,9.590387e-05
0.17616382,7.6025724e-05,0.8631934,0.00048959255,0.00014078617,0.0014373958,0.00039762259,0.04956457,0.00085520744,0.007083088
0.0012078285,4.2676926e-05,0.00036647916,0.9989692,0.0012667179,7.772446e-05,0.0013923943,6.4373016e-06,0.00050881505,1.9967556e-06
0.5038285,1.013279e-06,0.010993898,1.6152859e-05,1.719594e-05,1.1831522e-05,0.00034046173,0.010404378,0.0017084777,0.49224344
0.46064964,0.0,7.897615e-06,5.930662e-06,5.364418e-06,1.1622906e-06,0.001476407,2.3841858e-07,0.82862264,7.301569e-05
0.00055375695,5.6535006e-05,1.6391277e-06,1.8000603e-05,1.1950731e-05,0.0015001595,0.9808534,2.8550625e-05,0.00014814734,0.01481536
0.001814872,0.0,1.6093254e-05,5.7935715e-05,2.6524067e-06,4.0233135e-06,0.00343287,0.0,0.99503046,5.6028366e-06
0.003982842,0.6980854,0.08175981,0.006134689,0.018646866,0.031993568,0.10068458,0.0025744438,0.032062978,0.23414654
0.99530363,0.0,8.9138746e-05,2.5629997e-06,1.5497208e-06,0.00063174963,0.0017907321,0.00023156404,0.00028666854,0.00014740229
0.12956172,8.416176e-05,0.00090304017,0.0018574893,7.379055e-05,0.00038918853,0.030368865,0.00029033422,0.92737114,0.0045303702
0.9931601,2.9802322e-08,0.000106334686,8.046627e-07,1.7881393e-07,9.8615885e-05,0.0011288226,0.0007394552,0.00059980154,0.00084137917
0.30056918,1.180172e-05,0.86491525,0.00011506677,0.0008184314,0.0014150143,0.0013255477,0.0032949448,0.00020721555,0.001995027
0.5874161,4.172325e-07,0.0011582077,0.0015490353,0.8528949,0.000477463,0.0037923157,5.9604645e-08,0.00034725666,0.00055122375
0.9810884,1.7881393e-07,0.0016804934,3.129244e-05,1.2218952e-06,0.0010794997,0.0009873211,0.024968535,8.0019236e-05,0.001388371
0.31573752,0.0049696863,0.0031459928,0.005053818,0.070789695,0.02158773,0.6849128,0.005769253,0.00061276555,0.13978544
0.11450526,0.00011307001,0.9384161,0.00044083595,0.0050219,0.0010294318,0.0011536181,0.0031382143,0.0009486377,0.008702874
0.038663596,2.9802322e-07,0.00018778443,9.149313e-06,0.0,1.898408e-05,0.00021639466,0.95425415,4.4882298e-05,0.001064837
4.592538e-05,5.581975e-05,0.017395705,0.0003965497,0.0014208555,0.9994071,0.01959464,0.00026348233,0.73984516,0.0003426969
6.148219e-05,5.8054924e-05,0.0026626885,0.9998429,0.010556728,0.00040528178,0.0039319694,1.4692545e-05,0.0001128912,3.2186508e-06
0.002064973,0.0,7.56979e-06,1.2457371e-05,7.2717667e-06,1.5795231e-06,0.0019066632,0.0,0.99109614,2.8431416e-05
0.995664,0.0,1.963973e-05,5.9604645e-08,7.748604e-07,2.4467707e-05,0.0013038516,2.8312206e-06,0.00023463368,0.0003964603
0.001997739,0.0004917681,0.9661631,0.061499447,0.3904599,0.0018197596,0.0021984577,9.2327595e-05,0.00030517578,0.001093477
1.937151e-05,0.25244778,0.46079618,0.995231,0.11148852,0.08417368,0.04940471,0.00040006638,0.00093865395,4.324317e-05
0.9907313,0.0,2.9176474e-05,6.2584877e-07,1.66893e-06,3.3318996e-05,0.0013060868,2.2679567e-05,0.0018950403,0.0010535419
0.00484699,8.374453e-06,0.004837841,0.00071820617,4.4703484e-07,0.0002617538,0.00092086196,0.004098803,0.9912256,0.00015339255
3.376603e-05,0.00012129545,2.9802322e-07,5.1796436e-05,1.8775463e-06,0.0012188554,0.99466133,1.7732382e-05,0.000118374825,0.005712867
0.001534909,0.001962632,0.9779438,0.010099977,0.2894885,0.0015210509,0.003660351,0.00012987852,0.076998144,0.0042016506
0.07349357,8.940697e-08,0.000210464,0.00028303266,5.90086e-06,2.002716e-05,0.002786547,1.5169382e-05,0.9781211,4.580617e-05
0.00019839406,0.4310878,0.0017572343,0.0074620545,0.01930055,0.1485255,0.68972814,0.00014325976,0.043216616,0.09314716
0.0001758337,0.00011885166,0.0007300675,0.9992359,0.21021256,0.0025036633,0.018349975,1.9788742e-05,0.00023055077,3.644824e-05
1.7285347e-05,0.7760825,0.124091595,0.99582076,0.10963979,0.20346412,0.24373582,0.00089129806,0.03888005,0.00024178624
0.63370913,3.9339066e-06,0.00014734268,0.0009651482,5.066395e-07,0.00025352836,0.0065689087,0.002321601,0.7926893,0.00047284365
0.000207901,1.5795231e-06,0.0039438605,6.2286854e-05,4.479289e-05,0.9986308,0.03661874,0.00094276667,0.0009382963,0.00015884638
0.98091936,2.0861626e-07,0.00022685528,3.758073e-05,1.8775463e-06,0.000249058,0.0018735826,0.00090253353,0.0045016706,0.0013890266
0.00044336915,0.66158724,0.49567473,0.07033199,0.1635373,0.8726523,0.03798166,0.00359568,0.033222318,0.01389268
0.004566878,0.0,7.778406e-06,5.146861e-05,2.682209e-07,2.2947788e-06,0.0022696257,2.0861626e-07,0.9928837,7.122755e-06
0.00010976195,4.7296286e-05,0.014302343,0.99879265,0.76115704,0.0018533468,0.0089357495,4.23193e-06,6.982684e-05,1.963973e-05
0.00013515353,0.0,8.6426735e-06,1.707673e-05,7.897615e-06,2.8908253e-06,0.0030233264,0.0,0.99734503,3.33786e-06
0.9793024,1.4901161e-07,0.00044330955,4.503131e-05,7.4505806e-05,0.000544101,0.0011357069,0.0002731979,0.0012548566,0.0035762787
0.00028395653,1.6391277e-06,7.030368e-05,0.99926144,0.0069034398,1.6331673e-05,0.0013655722,6.2584877e-07,0.0014643669,2.3841858e-06
0.9887476,0.0,3.1918287e-05,1.1920929e-06,1.3709068e-06,7.507205e-05,0.0027899444,2.5719404e-05,0.0045897365,0.00082719326
0.00027522445,0.0,2.4437904e-06,8.940697e-08,1.04904175e-05,0.0004786253,0.00015711784,2.9802322e-08,0.0010394752,0.86585593
2.5868416e-05,0.02851227,0.00401479,0.99981546,0.14310005,0.0417383,0.35112336,0.00037524104,0.000101834536,0.00014272332
0.00017341971,0.0021065772,0.109874725,0.020579845,0.10740772,0.9993603,0.034626752,0.00045907497,0.014270276,0.0002348125
0.99312663,0.0,3.1352043e-05,1.1920929e-07,7.5399876e-06,3.8206577e-05,0.0011588633,7.7188015e-06,2.9802322e-05,0.00031632185
0.00013744831,0.0033948123,0.000121712685,0.017698407,0.044062763,0.35638422,0.26135153,0.00070664287,0.0896633,0.73386073
0.0111624,8.940697e-08,0.00022241473,0.00037238002,5.8621168e-05,1.859665e-05,0.0019034743,2.3841858e-06,0.9818189,0.00014516711
0.00013238192,0.0,6.8843365e-06,8.85129e-06,5.990267e-06,2.771616e-06,0.00410676,0.0,0.99673486,9.804964e-06
0.07264611,2.9802322e-08,0.00012493134,0.00018644333,1.2516975e-06,1.1742115e-05,0.0015979111,0.0001347363,0.97073954,0.00029349327
8.779764e-05,0.002368182,3.3974648e-06,0.00021517277,6.535649e-05,0.0039693713,0.9854442,1.335144e-05,0.00016823411,0.012238324
0.47160682,8.156896e-05,0.0011008084,0.00047683716,6.2584877e-07,0.0018392801,0.031095713,0.6882239,0.029557586,0.04694444
0.095988125,0.0019830763,0.8337947,0.00042015314,2.142787e-05,0.00053596497,0.0007162094,0.102326185,0.0008787811,0.014335781
0.00046873093,0.0,1.9669533e-06,1.3232231e-05,5.066395e-07,1.1622906e-06,0.002778113,0.0,0.9973773,1.4901161e-06
0.0001244247,0.9405379,0.0057474077,0.016749203,0.00061926246,0.018795937,0.22770217,0.0015724897,0.007838547,0.04082921
0.00046783686,0.004773289,0.010580093,0.9945523,0.21346262,0.0030666292,0.025729835,1.14142895e-05,0.034522593,9.152293e-05
0.008051574,0.1195766,0.15422925,8.0406666e-05,0.00013154745,0.00035753846,0.001178056,0.01152581,0.012023568,0.70647824
0.0020418465,2.682209e-07,7.069111e-05,4.1127205e-06,0.0,6.020069e-06,5.00679e-05,0.9849483,5.4508448e-05,0.0014021993
5.635619e-05,3.516674e-06,0.00012370944,0.9988883,0.03783506,1.2218952e-05,0.0013006628,0.0,0.39239573,3.963709e-06
0.9735701,5.9604645e-08,8.156896e-05,7.122755e-06,5.9604645e-07,5.2958727e-05,0.002955079,0.00016948581,0.05498573,0.00076013803
0.99648565,0.0,5.632639e-06,8.940697e-08,2.9802322e-07,1.3321638e-05,0.0011003017,1.7881393e-06,0.00016582012,2.5898218e-05
0.98742783,3.5762787e-07,0.00030618906,2.2530556e-05,1.1026859e-06,0.0014689863,0.004863858,0.0044302344,0.0022612214,0.00042313337
0.9884143,0.0,3.6895275e-05,2.0861626e-07,1.5199184e-06,0.00010406971,0.00531739,1.218915e-05,0.002258718,0.00094276667
0.00040262938,0.00221318,0.5511146,0.027094722,0.63628864,0.2729389,0.02486983,2.041459e-05,0.96724725,0.0006570816
0.00012859702,1.3411045e-06,0.0025872588,0.00035989285,6.943941e-05,0.9994391,0.021725923,0.0014781058,0.00011739135,2.7805567e-05
0.99183893,0.0,2.0235777e-05,8.046627e-07,1.5616417e-05,4.389882e-05,0.0010635555,2.3841858e-06,0.0002732277,0.0002590716
0.9749123,3.2782555e-07,0.0007894337,0.0001706779,6.854534e-05,0.0012653172,0.0013502836,0.00037500262,0.0011286736,0.0017441213
0.9896177,8.940697e-08,0.00018391013,2.026558e-06,4.172325e-07,0.00016957521,0.0018038154,0.0021637082,0.00013259053,0.0006221533
0.00026071072,0.0,0.0,0.0,9.23872e-07,0.0,0.0,0.0,0.0015057623,0.9980895
0.0014693141,0.0023528337,0.9071187,0.046262354,0.04943812,0.005656123,0.0094050765,0.0006468594,0.9512624,0.0022137165
0.0037970245,0.001221925,0.99318755,0.0045250356,0.062216997,0.0005880892,0.0005187988,0.0006313622,0.0015012026,0.003969282
0.020216018,0.0065000057,3.7521124e-05,1.6450882e-05,3.8713217e-05,0.0018514693,0.85170066,2.0563602e-05,0.30009383,0.020452768
0.0020983517,0.00011214614,0.008785307,0.0062777996,0.58481604,0.8649682,0.084196985,1.2904406e-05,0.0006417036,0.00032258034
0.38541475,0.0007825196,0.053946197,0.009096533,6.198883e-05,0.000451535,0.0045167804,0.27411708,0.040847212,0.20352009
0.0018850267,9.23872e-07,4.1246414e-05,0.9976616,0.033736706,1.4156103e-05,0.0010645688,4.172325e-07,0.0013196766,6.2584877e-06
0.0013070405,0.00021961331,0.1764127,0.006765902,0.92261004,0.0022307634,0.041541457,3.2484531e-06,0.9241655,0.004501611
0.997791,0.0,4.172325e-07,0.0,1.1920929e-07,5.364418e-07,0.00075528026,8.940697e-08,0.0001244545,2.5719404e-05
0.5947548,0.0001925826,0.0017723441,0.04534927,1.4007092e-06,0.0002901852,0.0039731264,0.1442438,0.58387244,0.01217255
0.9911725,0.0,2.5331974e-06,0.0,5.364418e-06,2.1457672e-06,0.0010490417,0.0,0.0024055839,8.547306e-05
0.0004388392,0.0,2.5302172e-05,4.6044588e-05,2.7060509e-05,3.1292439e-06,0.0012254119,2.9802322e-08,0.99502665,2.0384789e-05
0.0014893711,0.058959365,0.0012618899,0.006623596,0.00015592575,0.006090492,0.14508781,0.0005488694,0.94447684,0.008258432
0.995556,0.0,4.529953e-06,0.0,2.8312206e-06,3.1888485e-06,0.0009997189,5.9604645e-08,4.2676926e-05,6.741285e-05
0.41479886,2.527237e-05,0.7049002,0.00029703975,0.011860371,0.0017821193,0.005230993,0.0013558567,0.0004451573,0.009216428
4.9114227e-05,0.036805063,0.002603978,0.99796045,0.0063688457,0.0095204115,0.17220512,0.00031763315,0.043412745,0.000101715326
0.94068444,3.2782555e-06,0.002031356,0.00035110116,1.1920929e-07,0.0006697476,0.0022139847,0.4078209,0.00027778745,0.0017232895
0.00035586953,0.00036513805,0.9952718,0.0085422695,0.31982142,0.00067552924,0.00075662136,8.234382e-05,0.017554551,0.0015395582
0.0008262098,0.36447197,0.0005040765,0.017272145,0.003587544,0.00794068,0.8655247,0.00032258034,0.09856391,0.0564723
0.0092332065,8.940697e-08,7.200241e-05,1.1920929e-07,3.2395124e-05,1.4901161e-07,1.3291836e-05,3.5762787e-07,0.003358543,0.99083906
0.98967063,5.9604645e-08,0.00012782216,1.3411045e-06,6.7055225e-06,0.00018879771,0.0024222434,8.7440014e-05,0.00033986568,0.0015195906
0.00030055642,4.053116e-06,0.0036981404,0.0005917549,0.0002091825,0.9957086,0.04812038,0.0009294152,0.00010845065,8.544326e-05
4.23193e-06,0.7119241,0.004100442,0.9990238,8.222461e-05,0.0022715926,0.07530895,0.00035959482,0.72962666,7.83205e-05
4.720688e-05,0.0012180209,0.005328864,0.005092144,0.0060964823,0.9774169,0.21854708,0.0008151531,0.0005649626,0.0039942563
0.0024886131,0.0007211268,0.9983282,0.003021568,0.0025802553,0.000284791,0.0001758039,0.060678303,0.0018177629,0.018062681
0.024376184,2.503395e-06,0.0009191632,2.2172928e-05,4.976988e-06,0.00031104684,0.0033079088,0.0053185225,0.59658694,0.25490904
0.0008497536,0.92018735,0.03929013,0.010037988,0.013318509,0.07944468,0.1356023,0.000715971,0.0115318,0.09134495
2.220273e-05,0.005930394,0.9495311,0.92874354,0.076984614,0.00661692,0.0016065836,5.108118e-05,0.6761248,4.5835972e-05
0.0030207634,3.8444996e-06,6.762147e-05,0.0020358264,9.23872e-07,0.000105679035,0.0038146973,0.0007081926,0.97921073,0.0007022917
0.00010180473,0.016573787,0.041487366,0.99669373,0.91437006,0.50480556,0.25096148,0.00021079183,0.00015711784,6.4879656e-05
0.9880228,0.0,0.00013923645,1.1920929e-07,4.7683716e-07,3.2514334e-05,0.0017468631,0.0001181066,0.00060907006,0.0008380413
0.9964749,0.0,5.00679e-06,2.9802322e-08,9.23872e-07,8.702278e-06,0.0007394552,7.4505806e-07,9.274483e-05,4.324317e-05
2.5004148e-05,0.0025088787,0.038624287,0.022702456,0.0049496293,0.98630136,0.044492632,0.0024894476,0.00066128373,0.0006147921
0.00044840574,5.9604645e-08,3.5732985e-05,1.1026859e-06,0.0,4.142523e-06,1.7285347e-05,0.99308795,1.9460917e-05,0.000844717
1.5348196e-05,4.172325e-07,0.006807387,2.7120113e-06,1.3709068e-05,0.99948597,0.007819921,2.732873e-05,0.011398137,5.0336123e-05
0.0004826784,4.142523e-06,0.0039183795,0.00033682585,0.0003245771,0.9979319,0.05270034,0.0015041828,0.00038579106,0.00015571713
3.9041042e-05,1.7493963e-05,0.012118518,0.00013321638,0.00025993586,0.99913013,0.020093113,0.00025603175,0.0068700314,0.00016462803
0.048069894,0.0,0.001906544,3.874302e-07,0.0001771748,2.9802322e-07,4.428625e-05,2.7418137e-06,0.026750892,0.9230431
0.0004644692,6.824732e-05,0.99878144,0.00038310885,0.032362133,5.310774e-05,0.00012210011,0.00013929605,0.0008685887,0.0018847287
6.0796738e-05,8.529425e-05,0.00084769726,0.9998481,0.0001642108,0.00013652444,0.0009305775,0.00022855401,0.00021120906,8.940697e-06
0.9592389,0.0,2.7388334e-05,4.7683716e-07,0.0005323589,7.748604e-06,0.0021798015,1.4901161e-07,0.01911214,0.00138852
0.9956533,0.0,8.940697e-06,1.4901161e-07,5.364418e-07,9.030104e-06,0.0007262528,2.8908253e-06,6.097555e-05,6.645918e-05
0.0027076602,6.0796738e-06,0.0034389496,1.4811754e-05,6.8843365e-06,0.97243845,0.017413706,0.008642107,0.0006301403,0.0024286509
0.0014773607,0.0020830035,3.0517578e-05,0.0012510121,2.4229288e-05,0.005980909,0.94083095,0.0016185939,0.0033572912,0.015351802
0.0012366474,0.012550652,0.9907712,0.014322162,0.20791405,0.012153894,0.0028670132,0.0043966174,0.023958564,0.00810954
0.0021255314,2.2351742e-06,0.003893435,0.00012168288,0.0001399219,0.9979025,0.025467098,0.001324296,0.00013369322,6.815791e-05
0.9635515,3.5762787e-07,0.0005850494,4.8577785e-05,1.0073185e-05,0.00023826957,0.001989752,0.0015517771,0.0198794,0.013210684
0.3127455,0.00041285157,0.008631051,1.4036894e-05,2.9802322e-08,5.2452087e-06,0.00021141768,0.4021772,0.02002129,0.2564128
6.625056e-05,8.109212e-05,0.01294744,0.00047019124,0.00039872527,0.99830174,0.027747065,0.0020596683,0.043121338,0.0005299449
0.86329186,3.144145e-05,0.018628776,0.004465431,0.0008431673,0.006290823,0.012092173,0.016117424,0.0015627742,0.03398016
0.00032538176,9.179115e-06,0.006767839,0.00024706125,0.0001898408,0.99941725,0.02327767,0.0015108883,0.028495908,0.00018283725
0.9698986,8.046627e-07,0.0009062588,5.429983e-05,2.9802322e-08,0.0002834797,0.000693202,0.11792448,0.00040656328,0.0014649332
0.0024519265,0.0,1.9669533e-06,4.8190355e-05,6.556511e-07,5.662441e-07,0.0003927052,0.0,0.9841145,3.0994415e-05
0.0005042553,0.03825453,0.65097123,0.01245591,0.029227883,0.9404646,0.005300194,0.0017858148,0.009311318,0.00077965856
0.95252514,1.1920929e-07,0.00038138032,3.990531e-05,2.1010637e-05,0.00017440319,0.0019319952,0.00012290478,0.072205156,0.0024211109
0.00010386109,0.06802404,0.0022076666,0.9969612,0.1302424,0.058567077,0.52247465,0.00029942393,0.00053983927,0.00057151914
0.98727715,2.9802322e-08,6.341934e-05,5.4240227e-06,5.066395e-07,7.465482e-05,0.0016794503,0.00043788552,0.0029485822,0.0011688769
0.00077947974,1.2993813e-05,0.0001744926,0.999529,0.00874871,7.075071e-05,0.0018025041,5.155802e-06,0.000498265,5.930662e-06
0.9903679,0.0,9.4771385e-06,1.7881393e-07,1.4901161e-07,6.467104e-06,0.0025658906,1.2516975e-05,0.006248623,0.00020369887
0.038030267,4.082918e-06,0.0006135106,0.00042068958,0.0006751716,0.0026199222,0.008247465,0.0001425147,0.81469524,0.028732449
0.00016480684,0.0007689297,0.00494045,0.00033575296,0.00014531612,0.94723666,0.0734891,0.0010253191,0.00069338083,0.0028228164
0.00037574768,9.635091e-05,0.00033828616,0.9994898,0.0029081106,0.00065612793,0.010103881,0.0005826652,0.00021782517,6.8455935e-05
0.99443567,0.0,1.9729137e-05,6.2584877e-07,8.404255e-06,7.253885e-05,0.0010143816,3.1292439e-06,0.00020328164,0.00012105703
0.00031155348,0.0,6.1005354e-05,2.0742416e-05,8.046627e-06,6.109476e-06,0.0010901988,1.4901161e-07,0.99658453,2.4229288e-05
0.035515904,0.00049343705,0.97574687,0.0022121966,0.0033522844,0.00095683336,0.0009074807,0.021677315,0.00036978722,0.017835468
0.003666699,0.6820843,0.13967013,0.00096681714,0.00023502111,0.0027276278,0.0144054,0.0041968226,0.0051597953,0.08682555
0.9939531,0.0,4.810095e-05,1.5199184e-06,5.2452087e-06,0.00012287498,0.00096434355,3.3825636e-05,0.0006557703,0.00039446354
0.000749439,1.1920929e-07,1.8924475e-05,7.390976e-05,5.662441e-07,5.096197e-06,0.0021023154,6.2584877e-07,0.9962877,6.6161156e-06
0.991837,0.0,1.21593475e-05,1.013279e-06,9.447336e-06,2.8550625e-05,0.0010814071,1.013279e-06,0.00095555186,0.000138551
0.00027111173,0.3559943,0.8806281,0.79622287,0.35177454,0.118881464,0.047689676,0.00042930245,0.58221734,0.00051882863
0.2722777,5.9604645e-08,7.6800585e-05,0.00035896897,3.3080578e-06,1.4662743e-05,0.0016359389,2.9534101e-05,0.91130507,0.00015339255
0.9941387,0.0,1.3589859e-05,2.3841858e-07,2.2053719e-06,1.6838312e-05,0.0006880164,2.503395e-06,0.00022035837,0.00017392635
0.8978459,2.8908253e-06,0.00084260106,0.00022867322,0.0,0.00028145313,0.0017757416,0.54747534,0.00039976835,0.005488187
0.008994281,2.926588e-05,2.3245811e-06,4.2021275e-06,7.033348e-06,0.00075769424,0.9774282,2.8461218e-05,3.2931566e-05,0.0027920306
0.94373,0.0,7.8082085e-06,5.364418e-07,6.2584877e-06,1.4603138e-06,0.0014037192,2.682209e-07,0.078719616,0.0004492402
0.8784556,5.9604645e-08,0.00020501018,5.930662e-06,1.3947487e-05,2.6643276e-05,0.004702717,2.0325184e-05,0.30924004,0.006351322
0.0001936853,0.0,5.066395e-07,2.95043e-06,8.940697e-07,1.4901161e-07,0.00044986606,0.0,0.9943678,6.645918e-06
0.9108486,2.0831823e-05,0.004123777,0.00014948845,6.109476e-06,0.0012386441,0.013441175,0.1714834,0.0007440448,0.025916189
0.0009100139,1.1831522e-05,0.003091693,0.0019536614,5.0336123e-05,0.00068327785,0.0055497587,2.5182962e-05,0.9916146,8.9377165e-05
8.621812e-05,4.6491623e-06,0.0028688014,0.9976836,0.9876692,0.00043156743,0.0069993436,0.0,0.002162993,1.8775463e-06
0.9948528,0.0,3.8206577e-05,5.9604645e-08,2.771616e-06,4.2021275e-05,0.0008007288,1.6987324e-06,0.0003708899,0.00047522783
0.63396096,2.9802322e-06,0.0040825903,5.325675e-05,1.8179417e-06,5.6117773e-05,0.0033826232,0.004220009,0.66235054,0.0033700764
0.84071577,2.1755695e-06,0.0010689795,0.00025451183,2.5331974e-06,0.00068351626,0.0047279894,0.033748746,0.5313574,0.006005883
0.00025233626,1.9013882e-05,1.9669533e-06,8.970499e-06,1.79708e-05,0.007025212,0.9701735,6.854534e-06,6.264448e-05,0.013974875
0.0022526681,6.490946e-05,0.0011033416,4.7802925e-05,0.0,0.0006312132,0.0013625622,0.9321047,0.016235948,0.2073459
0.00031715631,0.001953572,0.0053866208,0.99847716,0.0013842881,0.00782609,0.02888608,0.068207294,5.6773424e-05,0.00056409836
0.00012600422,4.863739e-05,1.090765e-05,0.00018116832,2.2739172e-05,0.1096769,0.94317305,0.0001847446,0.00045469403,0.010587186
0.001149863,0.022294343,0.023389399,0.00495559,0.88022065,0.035693377,0.32855713,1.2516975e-06,0.35653257,0.008146614
0.00027242303,0.00022020936,0.9983276,0.0010960698,0.1129784,0.00030353665,0.000441283,3.3915043e-05,0.07916123,0.0007035136
0.00030776858,0.0,1.1444092e-05,1.9222498e-05,4.7683716e-07,2.95043e-06,0.00048211217,3.5762787e-07,0.9965234,1.975894e-05
0.99226344,5.9604645e-08,0.00016075373,9.983778e-06,1.3709068e-06,0.0006237924,0.0010352135,0.0006272197,0.00019851327,0.00029280782
0.9839166,3.2782555e-07,0.00084370375,4.9620867e-05,4.440546e-06,0.0025281906,0.002752751,0.007506013,0.00047814846,0.0014742911
0.0024499,6.943941e-06,7.1942806e-05,0.99933815,0.0011506677,6.273389e-05,0.0014766753,9.980798e-05,8.1300735e-05,1.731515e-05
0.0003657341,1.0579824e-05,0.00013136864,0.99960655,0.015146673,9.0807676e-05,0.0029558241,7.212162e-06,0.00010049343,8.5532665e-06
0.009905696,0.0,0.000109523535,0.00020593405,1.5199184e-06,1.30832195e-05,0.0014674067,3.5464764e-06,0.9925262,5.2154064e-06
0.9930461,0.0,3.1501055e-05,1.9967556e-06,1.4960766e-05,0.000119656324,0.0008253455,3.9339066e-06,0.00020420551,0.00016123056
0.9867132,8.940697e-08,0.0003887713,8.6426735e-06,7.969141e-05,0.001059711,0.0022092164,0.00013041496,0.00028973818,0.0012846887
0.0030725598,8.666515e-05,2.2351742e-06,7.927418e-06,1.707673e-05,0.0011013448,0.9758491,1.090765e-05,0.0005660951,0.0093102455
0.0010607839,0.008833647,0.00019329786,0.008102864,0.0013464391,0.033495635,0.9217591,0.0017482936,0.0005104244,0.0513857
0.9460654,2.2649765e-06,0.00025111437,0.00012487173,3.1590462e-06,0.00046262145,0.009101212,0.00095403194,0.18546695,0.0012150407
0.008007884,4.053116e-05,2.336502e-05,4.4375658e-05,6.7442656e-05,0.007283956,0.9232796,2.7894974e-05,0.0002490282,0.004776716
0.024610668,9.298325e-06,0.00024178624,0.0005068779,9.468198e-05,0.0022749007,0.02918619,0.00063347816,0.831081,0.033683002
0.46573004,1.1920929e-07,0.00013580918,0.00039473176,2.1457672e-06,2.9683113e-05,0.003057748,0.00010180473,0.86205256,0.00034451485
0.00014284253,0.0,1.3738871e-05,0.00019568205,5.6773424e-05,1.090765e-05,0.0036032796,0.0,0.9952276,1.3768673e-05
0.00025689602,0.8831711,0.012803376,0.046335667,7.158518e-05,0.011282325,0.047887504,0.0004504025,0.95458317,0.0028413832
0.0025838315,0.0,8.010864e-05,6.0617924e-05,5.6922436e-05,1.052022e-05,0.0035703778,5.364418e-07,0.98204154,0.0009082854
0.0004118979,0.00016063452,0.99820036,0.0018545389,0.056549102,0.0002926588,0.00029593706,0.000117212534,0.037438393,0.0010859966
0.013755918,0.54796165,0.75747216,0.2732907,0.026516497,0.032331973,0.031878144,0.032809228,0.011068225,0.021992952
0.043308735,0.0,0.00012141466,0.00017184019,4.3332577e-05,8.85129e-06,0.0014342964,3.9041042e-06,0.9632063,0.0006877482
7.688999e-05,0.9351815,0.0013825595,0.011402905,2.1368265e-05,0.0055740774,0.07130924,0.00018063188,0.90148866,0.010973364
0.0047568977,0.8028599,0.023996413,0.041748106,0.00037544966,0.008276403,0.10088879,0.008764803,0.7081068,0.038758606
0.018885404,0.35804307,0.14196417,0.0036928952,0.004656136,0.0064667165,0.030288935,0.009794086,0.009233803,0.33983225
7.033348e-06,4.3809414e-06,0.004073024,0.00012162328,5.531311e-05,0.9998396,0.010056734,0.00026106834,0.0036653876,1.7493963e-05
0.0007415712,0.5707866,0.03370875,0.04949245,0.16831696,0.109497756,0.4215412,0.00055485964,0.00093606114,0.024613112
0.00022888184,0.0006326735,0.9988638,0.002452463,0.04184735,0.0004130602,0.00033310056,0.00029575825,0.16756347,0.0017605722
0.95579195,1.5497208e-06,0.002695322,2.1666288e-05,3.8921833e-05,0.0004389882,0.0043278337,0.005097598,0.00029405951,0.020692855
0.00015506148,0.0123150945,0.03723809,0.88422716,0.6044602,0.986045,0.2973441,0.0019178092,0.0034021437,0.00053426623
0.943915,0.0,3.8057566e-05,4.2915344e-06,0.007254213,7.599592e-06,0.0007352233,2.9802322e-08,0.010990888,0.00089228153
1.66893e-05,0.1758205,0.008185804,0.99944246,0.068387866,0.0706591,0.34564325,0.0005325377,0.119395226,0.00020733476
0.0016611814,1.1622906e-06,4.2378902e-05,3.1530857e-05,0.0,1.0788441e-05,5.632639e-05,0.98571956,2.7179718e-05,0.0015115738
0.8541965,1.6003847e-05,0.0027098656,5.9098005e-05,6.2584877e-07,0.0006903112,0.0054039955,0.36973292,0.0035041869,0.023314685
0.9700741,2.1755695e-06,0.0047109723,2.0235777e-05,9.536743e-06,0.0027657151,0.0065218806,0.06732911,0.00017982721,0.005427301
0.99161065,0.0,3.582239e-05,6.4074993e-06,2.1755695e-06,0.00014978647,0.0014751852,2.9027462e-05,0.0012184978,0.0002155006
0.00026071072,0.0,0.0,0.0,9.23872e-07,0.0,0.0,0.0,0.0015057623,0.9980895
0.0006569028,0.0004979074,3.0696392e-06,0.00048094988,2.9802322e-08,0.0011173487,0.8185119,0.06419477,0.010864645,0.013017565
0.00024417043,8.940697e-08,5.4240227e-05,5.5640936e-05,1.6957521e-05,3.8087368e-05,0.004045069,4.7683716e-07,0.99517876,7.498264e-05
0.0001347959,0.00014454126,0.0006118715,0.99703175,0.83022213,0.0015419126,0.043386072,8.255243e-06,0.000520736,0.00082591176
0.23004884,0.00015294552,0.33196586,0.00084123015,0.28092417,0.00096565485,0.029630542,0.0002773702,0.027602524,0.2880556
2.6524067e-05,0.52715105,0.023561835,0.98817813,0.009312093,0.019682437,0.2766044,0.0013002455,0.53534746,0.00042897463
0.00033447146,0.0,3.1113625e-05,0.00010091066,4.142523e-06,6.467104e-06,0.0009571016,4.7683716e-07,0.9971789,1.3053417e-05
0.99499273,0.0,3.9041042e-06,0.0,3.5762787e-07,3.4570694e-06,0.001452595,2.0861626e-07,0.000802964,8.0645084e-05
0.0006071627,0.0008685589,0.00021088123,0.0023887455,0.0005184114,0.07201806,0.85236835,0.00013700128,0.00020188093,0.0036753118
0.99148077,0.0,8.368492e-05,7.748604e-07,1.6987324e-06,8.022785e-05,0.0014224946,0.00012061,0.00011000037,0.0006092489
0.00014582276,0.11819559,0.06082478,0.9739318,0.8691664,0.95773494,0.34954953,0.0004968643,0.003630042,0.0005170703
0.08714804,0.0012826025,0.94986784,0.0020400286,0.0004966855,0.0015911758,0.0012737513,0.054469913,0.001286,0.011219591
0.0018635988,4.9501657e-05,0.00011816621,0.99965775,5.349517e-05,0.00011137128,0.0018083155,0.0006867945,0.0003246367,2.1070242e-05
0.03501004,5.3435564e-05,2.8818846e-05,4.7028065e-05,9.328127e-06,0.006924629,0.88140064,0.00079101324,8.3208084e-05,0.0036428869
0.020179778,3.9339066e-06,0.00032380223,2.0712614e-05,0.0,1.7404556e-05,0.00023204088,0.97584397,0.00047942996,0.010259062
0.00022238493,1.1622906e-05,0.00012624264,0.99959135,0.0069793165,4.0113926e-05,0.0023333728,1.1026859e-06,0.0073775053,2.9802322e-06
0.00016465783,0.966144,0.0048496425,0.00055357814,7.0035458e-06,0.00256899,0.015803128,0.00022026896,0.32696322,0.031526268
0.0002874732,0.0,2.9802322e-08,0.0,1.4901161e-07,0.0,0.0,0.0,0.0015132427,0.99860907
0.00999999,0.0,1.0579824e-05,0.0,9.924173e-06,0.0,9.536743e-07,0.0,0.022699267,0.9739513
0.9347366,5.9604645e-08,8.1300735e-05,8.761883e-06,3.784895e-06,2.3037195e-05,0.0016525984,2.05338e-05,0.29996186,0.00041854382
9.319186e-05,5.155802e-06,0.006208688,5.939603e-05,0.00019389391,0.99955714,0.020519525,0.00041925907,0.038990676,0.00018578768
0.00012516975,5.4210424e-05,0.0076253414,0.99874735,0.99193835,0.0041217804,0.013637662,1.4901161e-07,0.0016212463,8.195639e-06
0.0008699298,2.9802322e-08,1.5348196e-05,9.23872e-07,0.0,2.4735928e-06,2.3573637e-05,0.99113643,2.5510788e-05,0.00039544702
0.0029024482,0.0,3.117323e-05,1.6540289e-05,2.5600195e-05,1.6510487e-05,0.0054548383,8.940697e-08,0.97941995,0.00032889843
0.99262714,0.0,0.00010558963,3.5762787e-07,5.9604645e-08,4.5627356e-05,0.00077292323,0.0009497404,7.8082085e-05,0.00043663383
0.0014343858,3.0994415e-06,2.1636486e-05,2.5212765e-05,0.0,5.066395e-06,8.779764e-05,0.98769784,0.0017752647,0.0027482808
0.00032919645,4.5627356e-05,0.99759877,0.0009809136,0.13689852,0.00018063188,0.0002465248,1.2516975e-05,0.0018742383,0.00031462312
0.00030854344,0.0,6.5863132e-06,1.2814999e-05,3.8444996e-06,1.758337e-06,0.001790762,0.0,0.9972458,2.2351742e-06
0.0010842979,0.002243191,4.9114227e-05,0.0024827719,0.00082167983,0.013866246,0.93217903,8.225441e-05,0.0034611225,0.036597252
0.23685864,5.662441e-07,0.00012433529,5.441904e-05,5.364418e-06,1.9431114e-05,0.0019702613,0.000269562,0.86842024,0.008772969
4.887581e-06,6.854534e-07,0.002550751,5.841255e-06,1.0550022e-05,0.9990682,0.015075952,2.4050474e-05,0.014199108,6.41942e-05
0.9579077,3.2484531e-06,0.0003631711,7.453561e-05,2.9802322e-08,0.00020945072,0.0021861196,0.07209334,0.031253934,0.0028812885
0.93872607,1.6987324e-06,0.0018428266,0.00018969178,2.682209e-07,0.00060889125,0.001683265,0.21099272,0.00033012033,0.0031217635
0.00055000186,0.06311938,0.039258927,0.0002681911,2.2679567e-05,0.00013893843,0.0036873221,0.0009956658,0.90733343,0.021341264
0.00025177002,0.00022003055,6.854534e-07,4.4465065e-05,1.1712313e-05,0.0005584955,0.9921653,9.298325e-06,3.1501055e-05,0.0057060122
0.994483,0.0,0.00014302135,1.7881393e-07,8.940697e-08,6.890297e-05,0.000759691,0.0006188154,7.531047e-05,0.00013536215
3.120303e-05,6.3985586e-05,0.00054731965,0.99976635,0.00055783987,9.164214e-05,0.00080809,1.7255545e-05,0.0025951862,3.7550926e-06
0.00017815828,1.1920929e-07,8.5532665e-06,1.013279e-06,0.0,6.2584877e-07,1.2427568e-05,0.99454516,8.3595514e-05,0.001093328
0.00095534325,8.940697e-08,7.945299e-05,9.301305e-05,2.771616e-06,9.387732e-06,0.0011392236,2.8312206e-06,0.99535835,4.6044588e-05
0.40819013,0.00036397576,0.048291206,5.5491924e-05,2.321601e-05,0.00011956692,0.006961733,0.0011318922,0.39875227,0.01056999
8.529425e-05,1.1026859e-06,2.8908253e-05,9.506941e-06,0.0,1.3768673e-05,9.468198e-05,0.99554217,0.0022714138,0.015150547
0.0001243949,0.004390031,2.7418137e-06,0.0006622672,7.83205e-05,0.0009113848,0.98515886,3.325939e-05,0.00014817715,0.023894846
0.2147463,1.7881393e-07,0.0001257658,7.7813864e-05,7.4207783e-06,3.4838915e-05,0.003992498,2.2768974e-05,0.93725705,0.00022283196
0.00026071072,0.0,0.0,0.0,9.23872e-07,0.0,0.0,0.0,0.0015057623,0.9980895
0.0004977286,0.86986893,0.057544976,0.0036017299,0.00013935566,0.004776269,0.013551027,0.0009447634,0.560986,0.06877798
0.025904983,3.5762787e-07,5.6385994e-05,0.00021404028,1.3411045e-06,1.2069941e-05,0.0018050373,8.85427e-05,0.9748832,0.00082170963
0.00017359853,9.804964e-06,0.007939339,0.00027504563,0.00029218197,0.9990144,0.026349455,0.0011914372,0.0018489361,0.000114291906
0.995854,0.0,7.1823597e-06,5.9604645e-08,9.23872e-07,1.0162592e-05,0.0008339286,1.0728836e-06,0.00013142824,0.00010859966
0.992001,2.9802322e-08,2.7537346e-05,2.6524067e-06,2.9802322e-07,0.00013273954,0.00392434,0.00021213293,0.0025909245,0.00022113323
0.9608549,9.834766e-07,0.00023368001,4.2140484e-05,2.9802322e-08,8.678436e-05,0.0010991395,0.040802896,0.0073066354,0.003945142
0.99200135,8.940697e-08,0.0014821291,2.6226044e-06,7.4505806e-06,0.0023811162,0.0019983053,0.006839484,2.926588e-05,0.0009261668
0.00030726194,5.9604645e-08,4.169345e-05,9.930134e-05,8.672476e-06,1.0639429e-05,0.0031129718,1.7881393e-07,0.9967449,9.864569e-06
0.99572736,0.0,2.2500753e-05,0.0,2.9802322e-07,2.3543835e-05,0.0013693571,1.9162893e-05,0.000104665756,0.0001373291
0.00023561716,1.8179417e-06,0.006627977,3.194809e-05,6.106496e-05,0.9958557,0.023419052,0.00044077635,0.002199918,0.00044927
0.0037035644,8.940697e-08,3.1590462e-06,2.0056963e-05,5.662441e-07,2.5629997e-06,0.00445053,1.1920929e-07,0.9918617,2.0354986e-05
0.044737726,1.013279e-06,0.00010713935,6.467104e-06,0.0,5.5998564e-05,0.0006533265,0.96591127,0.00037002563,0.013902217
0.05724308,0.10144478,0.725017,0.0060658157,0.0035758018,0.0054276586,0.012936294,0.021258026,0.0017694533,0.03809485
0.00028207898,0.9147027,0.026686013,0.14562634,0.0029117465,0.08076063,0.17904449,0.007926255,0.039698124,0.04414636
0.99532944,0.0,2.5004148e-05,8.940697e-08,3.874302e-07,1.7523766e-05,0.00057807565,1.6778708e-05,4.351139e-05,0.00010713935
0.00013998151,8.264184e-05,0.013757944,0.0015738308,0.003087908,0.99876755,0.045346677,0.0005865097,0.0047750175,0.00024178624
0.9982374,0.0,3.7550926e-06,0.0,2.9802322e-08,7.1823597e-06,0.001105994,6.2584877e-07,3.695488e-05,1.9550323e-05
0.00014412403,8.612871e-06,0.006429583,0.97341573,0.9832716,0.00026530027,0.009514809,2.9802322e-08,0.10058057,3.6537647e-05
0.0021788478,6.556511e-07,0.0008941591,0.00040647388,0.00016999245,6.660819e-05,0.0048790276,8.583069e-06,0.9879569,0.0004994869
0.7191543,1.4007092e-06,0.00041407347,2.0742416e-05,0.0,6.210804e-05,0.0010220408,0.8342397,0.0001975298,0.0032043755
0.007313788,0.0,1.0281801e-05,4.1246414e-05,3.0696392e-06,1.7285347e-06,0.001826793,8.940697e-08,0.98919,2.5123358e-05
0.9953783,0.0,5.4836273e-06,8.940697e-08,3.6358833e-06,1.3738871e-05,0.00096073747,5.662441e-07,9.992719e-05,6.470084e-05
0.0018220842,1.1920929e-07,0.0020202696,0.0004247427,9.101629e-05,8.60095e-05,0.00319916,1.1563301e-05,0.9912386,0.0002360642
0.009707451,9.804964e-06,8.994341e-05,0.9919791,0.0011302233,8.821487e-06,0.00123927,5.2452087e-06,0.013079882,2.4795532e-05
0.99497306,0.0,3.5613775e-05,5.9604645e-08,5.9604645e-07,3.8415194e-05,0.0011517107,1.4215708e-05,0.0001232326,0.00030180812
0.00330171,0.0,1.1056662e-05,6.467104e-06,6.2584877e-06,1.937151e-06,0.0016810596,2.9802322e-08,0.9865755,8.827448e-05
2.2470951e-05,3.516674e-06,0.0034001172,0.0001437068,0.00014424324,0.99970245,0.021997154,0.00034061074,0.0006965995,4.5239925e-05
0.40622407,2.9802322e-08,0.00012469292,2.9236078e-05,0.00019317865,1.0102987e-05,0.0020818412,1.66893e-06,0.8400471,0.0010783374
0.0010062456,6.2584877e-07,2.0056963e-05,2.6255846e-05,3.2782555e-06,2.9236078e-05,0.017420143,6.854534e-07,0.98865557,0.00030359626
0.00073066354,1.2308359e-05,0.00066801906,0.99890137,0.00040215254,2.1964312e-05,0.0004824996,5.722046e-05,6.648898e-05,1.4305115e-05
0.9896498,1.4901161e-07,0.00014606118,1.2099743e-05,2.9802322e-07,0.0002901554,0.0016078949,0.0036543608,0.0013817251,0.00052025914
0.00046023726,0.0037673414,0.00217852,0.9990959,0.03407073,0.020348847,0.12548721,0.016277254,0.00014519691,0.0016191006
0.000374645,3.9041042e-06,9.381771e-05,0.99831986,0.0050371885,1.4960766e-05,0.0013786554,7.4505806e-07,0.050751656,5.096197e-06
0.00031027198,3.3318996e-05,2.7418137e-06,4.580617e-05,1.1920929e-07,0.005045235,0.91559774,0.016605645,0.0012887418,0.025119275
0.016004741,0.0,2.4825335e-05,0.0,2.3037195e-05,2.9802322e-08,7.897615e-06,0.0,0.02456835,0.96917135
0.0003631115,9.23872e-07,8.878112e-05,0.9984219,0.0692507,1.3023615e-05,0.00089520216,1.4901161e-07,0.0039685667,4.0233135e-06
0.032964826,0.0,9.6946955e-05,9.2208385e-05,3.939867e-05,4.7385693e-06,0.0018736422,2.9802322e-07,0.9722388,4.8041344e-05
0.00028157234,0.81924224,0.03218755,0.58984315,0.0005081892,0.017787725,0.102330565,0.0013741255,0.92066324,0.0017873645
0.00033289194,5.0365925e-06,9.807944e-05,0.99948686,0.0062321126,4.2945147e-05,0.0011479259,2.1457672e-06,0.00010898709,2.4735928e-06
0.2462869,0.0,0.00026386976,7.4505806e-07,4.2319298e-05,3.5762787e-07,0.000182271,4.23193e-06,0.17119882,0.70056355
6.92904e-05,0.00013393164,0.0028276742,0.9996274,0.0018374324,0.0023838878,0.003853947,0.011934996,3.9428473e-05,0.00015062094
9.420514e-05,0.00042510033,1.9669533e-05,7.4505806e-06,7.015467e-05,0.10915345,0.87741566,3.8444996e-06,0.52714,0.014981091
0.0018036962,0.00023087859,0.9835548,0.008278072,0.25792652,0.00052821636,0.00100559,7.492304e-05,0.0043872595,0.0024688244
0.97871673,4.4703484e-07,0.00033956766,2.7388334e-05,8.34465e-07,0.0002632439,0.0024184287,0.011934608,0.0050473213,0.004555732
0.93054795,0.0,5.236268e-05,5.662441e-07,4.172325e-07,6.765127e-06,0.00352782,7.033348e-06,0.20568252,0.00026255846
0.00011843443,6.350875e-05,0.010395795,0.005284995,0.0006491244,0.9956368,0.075684875,0.0089401305,0.0003453493,0.0002643168
0.01045382,1.847744e-06,2.9802322e-07,3.874302e-07,1.2814999e-06,8.6426735e-07,5.3793192e-05,1.013279e-06,0.02309987,0.90950763
0.9966208,0.0,1.3411045e-05,2.9802322e-08,0.0,1.1473894e-05,0.0016520917,0.00010064244,0.00016927719,7.2449446e-05
0.00046303868,0.0,6.7949295e-06,2.297759e-05,1.5497208e-06,1.9967556e-06,0.002111882,0.0,0.9966404,3.3676624e-06
0.98222506,0.0,0.00011560321,1.2516975e-06,6.681681e-05,9.3489885e-05,0.0017704964,5.990267e-06,0.0007573366,0.0014224052
0.9789765,0.0,2.2858381e-05,1.0550022e-05,4.3213367e-06,3.618002e-05,0.00121364,1.0937452e-05,0.016652197,0.00021520257
0.00018757582,0.000695169,1.1622906e-06,3.0219555e-05,6.633997e-05,0.00080153346,0.9901858,1.3709068e-06,0.00030449033,0.017518252
0.072330296,0.00012469292,0.9655005,0.0018803477,0.0073772967,0.00078198314,0.0010554492,0.006630659,0.00059095025,0.011447936
0.9674271,4.4703484e-07,0.002053529,9.5039606e-05,1.6510487e-05,0.0010227561,0.0010651648,0.0075488687,0.00020474195,0.0056568086
0.03424278,0.0002322793,0.0057699084,1.2040138e-05,0.0013253987,5.2839518e-05,0.0024892688,9.7602606e-05,0.005487472,0.9243336
0.00089770555,0.9173255,0.03455642,0.02059576,0.00290972,0.045965314,0.11017728,0.0009421408,0.70967144,0.049445957
0.9836738,1.1920929e-07,0.0006621182,3.516674e-06,2.82228e-05,0.00032150745,0.0016919374,0.00039324164,0.0004593432,0.0071676373
0.00018411875,9.030104e-06,0.00054612756,0.9937053,0.43280646,5.733967e-05,0.0035505593,0.0,0.27465922,1.2099743e-05
0.47133622,1.1622906e-05,0.6817847,8.970499e-05,0.00049215555,0.0009750128,0.0030112565,0.024712056,0.0015200078,0.02117747
0.5324826,5.364418e-07,0.00029543042,4.053116e-05,1.7672777e-05,5.930662e-05,0.0038937628,0.00023970008,0.7023846,0.010236591
0.00017130375,0.008887768,0.9570166,0.3322295,0.029115587,0.0053978264,0.0050490797,0.00024089217,0.95982325,0.0004297495
0.46181235,4.0471554e-05,0.010322094,0.00040465593,2.0861626e-07,0.00016582012,0.0008098781,0.7159357,0.0009813011,0.05309102
0.000584811,0.00035268068,0.99115646,0.013707697,0.10544163,0.0033069253,0.0025518239,0.00081697106,0.88418883,0.003175199
0.9929069,0.0,5.453825e-06,2.9802322e-07,3.1262636e-05,1.2695789e-05,0.0008109808,8.940697e-08,0.00077694654,0.00010547042
0.00020763278,0.003959447,0.00060099363,0.91457415,0.00014197826,0.0003373921,0.02116087,0.00043651462,0.9177035,0.00033128262
0.00015467405,5.748868e-05,0.0031826496,0.9993879,5.710125e-05,0.000102996826,0.0007084608,0.0016846061,4.3809414e-05,2.8282404e-05
0.0003501475,8.940697e-08,1.6480684e-05,3.257394e-05,1.2606382e-05,1.30832195e-05,0.014031112,0.0,0.9926866,3.0130148e-05
2.5331974e-05,0.4021989,0.09213868,0.99964637,0.31939423,0.30409205,0.3262489,0.00053977966,0.010178208,4.0233135e-05
0.9942937,0.0,4.2825937e-05,1.3411045e-06,1.4901161e-07,0.00010675192,0.0017298758,0.00026783347,0.0006195307,0.0002002418
0.0005699098,0.91220915,0.049981773,0.015579969,0.0008997619,0.023441106,0.040450603,0.0013209581,0.6867956,0.05579546
0.99780023,0.0,1.2516975e-06,0.0,1.7881393e-07,2.3841858e-06,0.00090169907,2.0861626e-07,8.6694956e-05,1.2725592e-05
0.0027962625,1.7881393e-07,0.00019356608,0.00043413043,2.2649765e-06,5.6892633e-05,0.0014081001,5.4180622e-05,0.99284303,6.970763e-05
0.0059583485,1.49309635e-05,0.0011244416,0.000111967325,3.0696392e-06,8.738041e-05,0.00222224,0.00047674775,0.97505677,0.0032072067
0.00043407083,0.87785834,0.21806961,0.54795647,0.015001267,0.06623921,0.057077765,0.00087967515,0.102849215,0.004405409
0.91343296,1.7881393e-07,4.810095e-05,8.201599e-05,1.3411045e-06,6.887317e-05,0.005129814,0.00015506148,0.18040013,0.00023812056
2.387166e-05,2.771616e-06,0.0031305552,0.0002645254,0.00020936131,0.999786,0.02199483,0.00030452013,0.0005658567,3.501773e-05
0.93265665,2.2947788e-06,0.00065374374,8.684397e-05,1.7881393e-07,0.00015121698,0.0016561449,0.15028557,0.0022262335,0.012427986
0.0014548302,4.7683716e-05,1.5199184e-05,0.0015559494,0.0,0.00022560358,0.0021369457,0.037922323,0.9905981,0.00026980042
0.00029736757,0.93272406,0.016417295,0.059019953,0.00018465519,0.018301994,0.051410496,0.0007099509,0.8735029,0.011447281
0.993919,0.0,0.0003079474,6.2584877e-07,1.937151e-06,0.00023517013,0.000947088,0.0005764961,0.00037127733,0.0023304522
0.0004685521,0.00038388371,0.007822812,0.0002207756,0.0012048781,0.981788,0.14724794,0.00021594763,0.18126294,0.0049522817
0.00018778443,0.0,9.745359e-06,1.6361475e-05,5.811453e-06,3.6656857e-06,0.003285408,0.0,0.9971749,3.8146973e-06
0.0011277795,0.84384435,0.062156737,0.099241376,0.042749107,0.060703486,0.22932157,0.0008858144,0.3165509,0.037243217
0.00025349855,0.003651023,0.09879354,0.041261494,0.18907839,0.9937098,0.03591734,0.00079777837,0.00064235926,0.00045406818
0.0023708045,2.9802322e-08,1.8298626e-05,0.0,0.0,1.1920929e-07,1.052022e-05,1.013279e-05,0.0048031807,0.98690784
0.2941591,0.000109523535,0.0014519095,0.6964936,0.00067576766,0.00019559264,0.0043991804,0.00037622452,0.70390856,0.00045272708
0.00025349855,0.0,1.2278557e-05,2.3573637e-05,1.1026859e-06,8.136034e-06,0.0007148087,4.7683716e-07,0.99634886,2.6345253e-05
0.0005862415,1.4901161e-07,0.00014543533,0.00013542175,1.7285347e-06,2.4169683e-05,0.0007947087,6.7949295e-06,0.99600387,3.59118e-05
0.0008767545,1.4901161e-05,4.7028065e-05,0.99894,6.3180923e-06,6.815791e-05,0.0011849701,9.301305e-05,0.00037658215,2.0563602e-06
0.000100672245,3.4570694e-05,0.0102984905,0.00015637279,0.0006043911,0.9989321,0.02280283,0.00065124035,0.060266852,0.000492841
0.000892967,0.00081029534,0.99686736,0.0023151934,0.0354504,0.000461936,0.0005015433,0.000577122,0.028230548,0.0033533871
0.81399834,4.5716763e-05,0.0036936104,0.0017360449,3.963709e-06,0.00045356154,0.005707115,0.20221964,0.019318104,0.039111286
8.934736e-05,0.0007867515,2.3543835e-06,0.00022023916,1.5884638e-05,0.0028264225,0.98528206,4.6104193e-05,0.00018167496,0.014382869
0.99538326,0.0,3.4570694e-06,1.1920929e-07,7.748604e-07,1.0371208e-05,0.0015737712,1.1026859e-06,0.0008279085,8.884072e-05
0.00034075975,6.467104e-06,7.495284e-05,0.99953055,0.0014390945,2.2172928e-05,0.0011424422,2.7120113e-06,0.003020972,3.1292439e-06
0.0073702633,7.593632e-05,2.1189451e-05,4.3809414e-06,0.0035332441,0.0029744208,0.71859264,2.2053719e-06,0.0005069077,0.21143031
3.951788e-05,0.0,1.3709068e-06,2.8908253e-06,1.1622906e-06,6.2584877e-07,0.0018149614,0.0,0.99866855,7.4505806e-07
0.0016952157,0.0,2.1338463e-05,5.2392483e-05,8.5532665e-06,6.6161156e-06,0.00399369,8.940697e-08,0.9903487,6.276369e-05
0.0005556941,0.22945815,0.2616086,0.6181613,0.04508558,0.023176044,0.059548736,0.000266999,0.95147413,0.001119703
0.9951143,0.0,3.4570694e-05,1.1920929e-07,4.7683716e-07,4.053116e-05,0.001172334,4.374981e-05,7.82609e-05,0.00021073222
0.9938086,2.9802322e-08,0.00014612079,1.013279e-06,3.963709e-06,0.00041264296,0.0022407174,0.00023403764,0.00091665983,0.0010707378
0.9930614,0.0,2.8908253e-05,5.9604645e-08,5.3346157e-06,4.553795e-05,0.0014092624,5.096197e-06,0.00047683716,0.0010195673
0.0001860857,0.0,6.5237284e-05,7.468462e-05,0.0015585423,4.029274e-05,0.0049293935,0.0,0.99240077,9.685755e-05
0.02404067,0.0,9.685755e-05,4.6640635e-05,5.5372715e-05,5.6922436e-06,0.0014788508,8.940697e-07,0.9657139,0.0005853176
0.0002759695,3.516674e-06,8.612871e-05,7.95722e-06,0.0,9.983778e-06,7.542968e-05,0.9939225,0.0012479126,0.02063644
0.99527836,0.0,5.543232e-06,8.940697e-08,1.3113022e-06,8.314848e-06,0.0008856356,6.854534e-07,0.0003812015,0.00018122792
0.0002632141,0.14656398,0.43328804,0.09874195,0.11988717,0.96225584,0.04249108,0.0059147775,0.39197016,0.0054035485
0.38050148,2.9802322e-08,7.7575445e-05,0.00037124753,3.1024218e-05,9.596348e-06,0.0011510849,1.6331673e-05,0.86246824,0.0012469292
0.4270271,0.0035713613,0.501285,0.074237496,0.027802944,0.017030269,0.05424711,0.026331693,0.033935875,0.031126559
0.0069318116,4.7683716e-07,0.0026836991,0.00024294853,0.0017155707,0.0001309812,0.0040844083,1.0162592e-05,0.9569091,0.005650252
0.00015041232,0.0,8.85129e-06,1.1354685e-05,1.8030405e-05,3.9041042e-06,0.0033065975,0.0,0.99628127,1.1175871e-05
0.00039607286,0.004459232,8.121133e-05,0.006257087,0.012675405,0.0073811114,0.94546986,1.2427568e-05,4.3600798e-05,0.0026509762
0.026726246,2.0861626e-07,1.2397766e-05,4.6551228e-05,1.1920929e-07,4.0233135e-06,0.002277255,1.7732382e-05,0.98042166,0.00042822957
0.98717844,2.9802322e-08,0.00016921759,8.434057e-06,5.3346157e-05,0.0003543198,0.0010495186,2.2172928e-05,0.0002681315,0.0007041395
0.98963094,8.940697e-08,0.00030878186,7.0035458e-06,2.849102e-05,0.00076025724,0.0018072128,0.00035053492,0.0004491508,0.002301544
0.0017434955,2.2947788e-06,5.310774e-05,4.529953e-06,0.0,1.3113022e-05,0.00020858645,0.9880724,0.00050485134,0.016174763
0.0019584298,5.662441e-07,0.00678879,0.00013884902,7.9900026e-05,0.998717,0.029675514,0.0061338246,0.00084349513,0.00017017126
0.01048848,3.5762787e-07,4.4554472e-05,4.3153763e-05,5.930662e-06,0.00021016598,0.012848794,2.56598e-05,0.973879,0.0003361106
0.001562655,0.0,0.00051763654,6.5118074e-05,0.00018942356,2.6077032e-05,0.0057171285,1.1920929e-07,0.98826283,9.551644e-05
0.0002565086,0.0008305907,0.9860052,0.020788193,0.29315948,0.0065867305,0.002739638,0.0002398789,0.95209205,0.0021824539
0.00015512109,0.03497404,0.00037038326,0.99424815,0.00020936131,0.0003311932,0.14778814,0.000102579594,0.7922076,3.260374e-05
0.00030210614,0.0,1.1920929e-07,0.0,8.940697e-08,0.0,8.940697e-08,0.0,0.0012980998,0.99826276
0.071858615,0.00093349814,0.61408204,0.02811408,0.58737695,0.007154554,0.074028075,0.00066906214,0.3547567,0.05533567
0.24503332,2.2053719e-06,0.0037984848,4.3839216e-05,8.481741e-05,0.00014254451,0.0028381646,0.005127847,0.047899395,0.28886235
0.98467594,8.940697e-08,0.0006066263,8.255243e-06,2.8908253e-06,0.00056809187,0.0018216074,0.0020883977,7.0899725e-05,0.0010479391
0.9901694,5.9604645e-08,0.00018250942,1.9431114e-05,1.2218952e-06,0.00066292286,0.0013644993,0.0013624728,0.00039061904,0.00037163496
0.0012205839,0.8876236,0.020680815,0.0025233626,0.0025186837,0.02038771,0.16382414,0.00071656704,0.27630693,0.06450328
0.032212973,0.0,0.00014701486,1.7881393e-07,8.5651875e-05,8.940697e-08,9.208918e-06,1.4901161e-07,0.021690518,0.95294946
0.0001502037,0.00032249093,0.9962876,0.025017083,0.29614747,0.0073697567,0.001434505,3.5196543e-05,0.8765291,0.00016102195
0.79746974,1.809001e-05,0.2634636,0.00036010146,0.00012436509,0.007981956,0.003611356,0.02664113,0.00038927794,0.0024167597
0.0002156496,0.020663261,0.034737587,0.98421264,0.0020794272,0.0015624166,0.014053017,0.0003065467,0.90623057,0.00023058057
0.0017623901,0.89190507,0.089882135,0.0058917403,0.003969431,0.037208706,0.06598118,0.0017120838,0.0068975687,0.04515603
0.003630221,1.2516975e-06,0.00013241172,0.00034460425,6.3180923e-06,6.2823296e-05,0.0072056055,2.7477741e-05,0.9880159,0.00032371283
0.0004350841,0.0024439096,0.9886534,0.007345766,0.09434387,0.26616585,0.0011924803,0.0005336106,0.42853317,0.00048026443
0.2038396,3.2186508e-06,5.3346157e-05,0.0063008964,7.4505806e-07,5.0485134e-05,0.004275501,0.00030374527,0.9537291,0.00015100837
0.8249527,5.066395e-07,0.00014173985,5.841255e-06,0.0,0.00013485551,0.0008715093,0.70060706,0.000502944,0.0028401315
0.9544801,2.3841858e-07,0.0005868077,5.4836273e-06,0.0,0.00011873245,0.001039058,0.52119136,2.0086765e-05,0.00060233474
5.7965517e-05,1.0609627e-05,0.011605322,7.402897e-05,0.00028973818,0.99952996,0.020126581,0.00019481778,0.3133158,0.00019058585
0.018589944,0.0,7.852912e-05,0.00015842915,5.066395e-07,2.2351742e-05,0.0019042194,6.708503e-05,0.98823816,2.6583672e-05
0.23832312,4.8577785e-06,0.0006646812,0.00043430924,1.4841557e-05,0.000111579895,0.005194813,0.004423678,0.7944481,0.0329687
0.019083232,0.0,9.9509954e-05,5.1498413e-05,3.913045e-05,6.4074993e-06,0.0021213293,1.7881393e-07,0.97182524,0.00018844008
5.9992075e-05,7.003546e-05,0.026881963,4.157424e-05,0.0013356209,0.9969152,0.023827493,7.262826e-05,0.10572779,0.00088328123
4.8965216e-05,0.0075483024,0.003116995,0.011004686,0.0038215816,0.7668189,0.43333894,0.0007431507,0.00333938,0.02904579
0.70148504,8.440018e-05,0.0024800003,0.00022006035,2.3841858e-07,9.095669e-05,0.0014794767,0.4668547,0.023440689,0.1117976
0.0013400912,6.1690807e-06,0.00012117624,6.16312e-05,0.0,0.00012591481,0.000623405,0.97744095,0.0017794073,0.07659319
0.0011436641,1.1622906e-06,0.00015282631,0.0006481409,0.9962679,7.0929527e-06,0.008729398,0.0,0.01600343,0.005855471
0.00024178624,0.20731255,0.030409157,0.0100391805,0.023310393,0.85459906,0.25295788,0.0016705096,0.14457133,0.04862994
0.98057616,0.0,6.1392784e-06,3.2782555e-07,1.6093254e-06,3.8444996e-06,0.0029858053,1.3113022e-06,0.01292339,0.00026282668
2.7805567e-05,6.7949295e-06,6.7830086e-05,0.99872804,0.0013273954,5.453825e-06,0.00082704425,4.172325e-07,0.7149117,5.0365925e-06
0.006341964,5.4836273e-06,0.013839394,0.0008685291,0.006617546,0.0004954934,0.0063842535,5.1021576e-05,0.95553863,0.006289363
0.019305974,0.0016488731,0.95398366,0.0059242845,0.17303771,0.0024287403,0.00943315,0.0023621023,0.09708017,0.023024648
0.00019195676,0.0013167262,2.95043e-06,0.0005106926,2.1219254e-05,0.00195086,0.9771117,3.311038e-05,0.00083631277,0.015888333
0.9184597,5.9604645e-08,0.00016105175,3.784895e-06,0.0004876256,2.2858381e-05,0.0013349354,3.0398369e-06,0.14506558,0.0155003965
0.00018078089,0.00406003,0.0012684166,0.0018960536,0.00460878,0.67506313,0.5760694,0.00064736605,0.019841552,0.20679674
0.0009687841,3.993511e-06,0.0078933835,0.00017544627,0.00056803226,0.9975047,0.04849547,0.0019333065,0.0021653175,0.0007223487
0.9905385,0.0,5.942583e-05,1.4305115e-06,3.7550926e-06,9.980798e-05,0.0015535355,3.194809e-05,0.0007444918,0.0010656714
0.20365489,3.0398369e-06,0.007921696,0.00020229816,0.0029911995,8.1926584e-05,0.0032077432,0.00029170513,0.3938971,0.63382435
1.898408e-05,0.00016331673,0.011961639,0.0013778806,0.0010446906,0.99920934,0.032185286,0.0009226799,0.042192042,0.0003335774
0.9932282,0.0,6.258488e-05,4.4703484e-07,2.0861626e-07,4.6283007e-05,0.0011955798,0.0002425015,0.00011831522,0.0002258122
1.1533499e-05,0.0047519803,0.91310155,0.9682814,0.021977514,0.0025717318,0.0004696548,3.132224e-05,0.009571165,1.1920929e-05
0.014641196,0.0,9.298325e-06,1.463294e-05,5.1259995e-06,1.2516975e-06,0.0015399158,0.0,0.9808971,3.6507845e-05
0.038706213,1.0728836e-06,0.00018832088,1.9311905e-05,0.0,2.130866e-05,0.00012600422,0.95317197,2.6971102e-05,0.0023154318
0.0022241473,8.285046e-06,0.0004388392,5.096197e-06,0.0,6.8336725e-05,0.00063818693,0.9690703,0.004306197,0.20734555
0.031376123,0.0,0.00011944771,9.459257e-05,2.0295382e-05,1.8894672e-05,0.0032597184,1.3440847e-05,0.9633551,0.002372861
0.98336655,2.3841858e-07,0.0007789731,4.3809414e-06,1.1920929e-06,0.00033184886,0.0018649101,0.001282841,0.0010032356,0.0019131899
0.96665704,0.0,0.00073486567,1.0728836e-06,9.012222e-05,8.9138746e-05,0.0006162226,4.4614077e-05,7.876754e-05,0.028119564
0.0040361285,5.9604645e-08,0.0038611293,0.0012765229,0.9988636,1.8209219e-05,0.0055230856,0.0,0.007781327,0.00045579672
0.99586886,0.0,1.8417835e-05,2.9802322e-08,4.7683716e-07,1.218915e-05,0.00057190657,8.672476e-06,5.2034855e-05,9.766221e-05
0.028591633,0.09082019,0.045244306,0.037899345,0.014831305,0.010729909,0.14441353,0.0022443235,0.72859216,0.06002438
0.96633416,0.0,6.7949295e-06,6.2584877e-07,3.1590462e-06,3.33786e-06,0.0012930334,4.172325e-07,0.057052493,0.00015455484
0.00040319562,0.0,4.374981e-05,4.5895576e-06,0.00054866076,2.9742718e-05,0.009393603,0.0,0.97616684,0.0017479658
1.1831522e-05,0.7805607,0.028035462,0.99763024,0.0002837181,0.009559661,0.09475762,0.00042012334,0.880245,5.146861e-05
0.995368,5.9604645e-08,0.000103354454,3.5762787e-07,2.9802322e-08,0.00011870265,0.0015014112,0.00044089556,0.00010764599,8.177757e-05
0.99021316,5.9604645e-08,0.0002886951,3.5762787e-07,3.874302e-07,7.5131655e-05,0.000890404,0.0036675632,3.2186508e-05,0.0010216236
0.995798,2.9802322e-08,7.927418e-05,1.8179417e-06,5.9604645e-08,0.00029432774,0.00125283,0.0010635257,0.0002053082,9.199977e-05
0.9876977,0.0,3.427267e-05,2.7120113e-06,1.7166138e-05,6.508827e-05,0.0013991594,3.695488e-06,0.003158629,0.0007799864
0.89872074,9.23872e-07,0.0014853776,6.6161156e-06,0.00013116002,0.0002450645,0.0097950995,3.8981438e-05,0.120803654,0.020236313
0.98195577,4.172325e-07,0.0023062527,5.2452087e-06,7.8737736e-05,0.00086957216,0.0032992363,0.0010781884,0.00062292814,0.015935302
0.99182314,0.0,0.00013294816,1.7285347e-06,3.2782555e-07,0.00036421418,0.0018880963,0.00021892786,0.00039687753,0.0002744496
0.00026071072,0.0,0.0,0.0,9.23872e-07,0.0,0.0,0.0,0.0015057623,0.9980895
0.00026071072,0.0,0.0,0.0,9.23872e-07,0.0,0.0,0.0,0.0015057623,0.9980895
0.0001963973,0.9466398,0.19348028,0.28094986,0.06915608,0.25003102,0.1080465,0.0008494854,0.008435637,0.013985306
0.001819849,0.91075957,0.15749744,0.015616119,0.0030597448,0.053748935,0.03431946,0.0021660924,0.018698066,0.035029322
0.0035189986,8.940697e-08,0.011300117,0.00010317564,0.9973791,1.5050173e-05,0.0058408976,0.0,0.5136724,0.0006518066
0.9924004,1.1920929e-07,0.0002604425,3.784895e-06,3.2782555e-07,0.0003657937,0.0007931292,0.0031947196,0.000114798546,0.00035113096
0.00048556924,9.208918e-06,7.83205e-05,0.0006374717,9.62615e-06,0.00025969744,0.036315203,9.030104e-06,0.98747504,0.00017666817
0.9928978,8.940697e-08,0.00034567714,7.122755e-06,6.854534e-07,0.0010960102,0.0016408563,0.0034863353,0.00020074844,0.000392586
0.006164044,7.1823597e-06,0.00014254451,0.99889326,0.0002258122,6.1780214e-05,0.0007080138,0.0012527704,6.455183e-05,7.2181225e-05
0.00041273236,6.124377e-05,0.94349724,0.021684647,0.7996446,0.0058353543,0.0047032237,6.854534e-06,0.9561153,0.00044757128
0.0016492903,0.00018185377,0.97493553,0.003806144,0.0640195,0.0012999177,0.00086024404,0.017755598,0.011790186,0.32213086
0.00026071072,0.0,0.0,0.0,9.23872e-07,0.0,0.0,0.0,0.0015057623,0.9980895
0.0005853772,3.552437e-05,0.0013777018,0.9993731,0.00010469556,6.6161156e-05,0.0007750392,0.00032275915,3.2037497e-05,9.506941e-06
0.9862226,1.7881393e-07,0.00049477816,1.8179417e-05,2.0861626e-06,0.0010932684,0.0020720363,0.0049390495,0.00015607476,0.0007536411
0.13069674,2.0563602e-06,0.0002105236,0.00091812015,9.000301e-06,4.9620867e-05,0.0040254295,0.0002259016,0.9539793,0.00088480115
0.9896917,0.0,2.3841858e-05,5.9604645e-08,2.3245811e-06,1.7523766e-05,0.010204047,5.00679e-06,5.4508448e-05,0.00042706728
0.99518263,0.0,1.6748905e-05,3.2782555e-07,5.9604645e-07,5.248189e-05,0.0013567507,1.2457371e-05,0.00026905537,9.265542e-05
0.00027239323,3.5613775e-05,3.0994415e-06,2.6255846e-05,7.3313713e-06,0.016831279,0.9648868,7.542968e-05,0.0010303557,0.006490439
0.060222536,0.00025698543,0.01068747,0.21799022,0.30048704,0.001400739,0.022081137,7.44462e-05,0.7169359,0.01561743
0.0005092025,2.9802322e-08,1.1950731e-05,1.9431114e-05,2.0861626e-06,1.04010105e-05,0.00818646,1.4901161e-07,0.9951124,2.2381544e-05
0.9585343,2.0861626e-06,0.0005724728,0.00016963482,5.364418e-07,0.00051915646,0.002287358,0.069253355,0.0050914586,0.0073405206
5.915761e-05,0.22565857,0.031199783,0.9995283,0.00090265274,0.0074099004,0.0147551,0.00016331673,0.23102096,1.7523766e-05
0.00036671758,0.14829975,0.033814013,0.99839133,0.2954558,0.035956442,0.14846829,6.181002e-05,0.27647611,0.00018543005
0.000112980604,0.033805043,0.9592836,0.8949152,0.04706976,0.0073557496,0.0010806322,0.00013762712,0.005811125,5.2273273e-05
0.96305996,6.2584877e-07,0.0061788857,4.249811e-05,2.8640032e-05,0.0011703372,0.0015188456,0.0049809515,0.0017647743,0.008656472
0.0006593168,0.0,5.3048134e-06,2.4735928e-05,1.1622906e-06,1.6987324e-06,0.002118498,0.0,0.9957011,5.4836273e-06
0.006107807,0.023300767,0.00041413307,0.0018485785,0.00010204315,0.00448969,0.29490283,0.00012853742,0.88858116,0.01290828
0.0026665628,1.1920929e-07,2.0354986e-05,6.937981e-05,2.503395e-05,1.2129545e-05,0.0022483468,5.364418e-07,0.98347074,0.0003362596
0.9922403,0.0,5.221367e-05,1.1026859e-06,2.8908253e-06,6.9618225e-05,0.000816375,2.7775764e-05,0.00015822053,0.00027391315
0.00031495094,0.18903717,0.05503121,0.99764407,0.07575977,0.0274418,0.063219845,7.376075e-05,0.35304126,0.0001411736
8.4251165e-05,0.8610344,0.09494239,0.1011363,0.07885361,0.24205083,0.16374007,4.643202e-05,0.84564877,0.0037015975
0.5063409,0.0,5.3614378e-05,7.1525574e-06,9.715557e-06,1.6987324e-06,0.0013314784,5.066395e-07,0.8084239,0.00018128753
0.99618065,0.0,8.940697e-06,0.0,8.940697e-08,6.9737434e-06,0.0010418296,1.13248825e-05,0.00014489889,6.368756e-05
0.00014704466,2.783537e-05,0.00029480457,0.9976045,0.0067610443,3.2305717e-05,0.002594918,1.847744e-06,0.6865589,1.4126301e-05
7.867813e-05,0.00028723478,0.015335768,0.9983736,0.10606772,0.00083717704,0.0049193203,5.5730343e-06,0.027336568,1.3887882e-05
0.0005890727,0.900738,0.0056626797,0.006365806,0.0037513375,0.02047798,0.42868447,0.00035086274,0.010719508,0.035157084
0.00072172284,5.9604645e-08,0.004817933,0.00031793118,7.7188015e-06,0.00019192696,0.00061774254,1.9162893e-05,0.99668586,8.5532665e-06
0.0006951988,0.55436414,0.008960694,0.043810815,0.0072731674,0.19382307,0.26113445,0.0008381307,0.7521019,0.047598332
0.0010236502,0.88846916,0.14299947,0.0024713278,0.001080811,0.019958168,0.015321642,0.0016623437,0.009080023,0.061551154
0.9930602,0.0,2.014637e-05,1.6391277e-06,3.0696392e-06,6.273389e-05,0.00080505013,1.0937452e-05,0.001630038,0.00021606684
0.00026071072,0.0,0.0,0.0,9.23872e-07,0.0,0.0,0.0,0.0015057623,0.9980895
0.73335886,0.0,0.000256598,2.9802322e-08,0.0014154613,6.854534e-07,0.00020599365,1.1920929e-07,0.0016460121,0.5710014
0.0045921504,1.4901161e-07,4.991889e-05,0.00020173192,9.536743e-07,2.6971102e-05,0.0053872764,4.708767e-06,0.9930099,2.3335218e-05
0.016754448,0.0,7.775426e-05,6.1392784e-06,0.0012463927,1.1920929e-07,2.2172928e-05,1.7881393e-07,0.0010611713,0.9809586
0.9976499,0.0,8.46386e-06,0.0,2.9802322e-08,1.5050173e-05,0.0018640459,3.8444996e-06,4.9233437e-05,3.3169985e-05
0.9894212,0.0,0.00018757582,1.1920929e-06,4.2021275e-06,0.00017398596,0.0022150874,0.00020736456,5.2899122e-05,0.000510931
0.0006210208,0.0,7.0631504e-06,4.553795e-05,1.9967556e-06,2.7120113e-06,0.0027107,2.9802322e-08,0.99584126,1.1861324e-05
0.0016815662,0.7366578,0.2740396,0.0030518174,0.003915459,0.010022491,0.025620013,0.0011827648,0.0054891407,0.058903813
0.015730023,1.1920929e-07,0.00012546778,0.0009988844,1.0341406e-05,4.3332577e-05,0.0034246147,1.7881393e-05,0.9857765,0.00012597442
6.318092e-05,0.016700476,0.09406331,0.014313698,0.05102876,0.9910135,0.08600718,0.0019079745,0.1652905,0.0047250986
2.1785498e-05,0.00020760298,0.015362114,0.00032639503,0.001039058,0.9990534,0.020067245,0.00024729967,0.075065434,0.00042927265
0.00047421455,0.0,1.0997057e-05,2.2262335e-05,7.5101852e-06,4.708767e-06,0.003345281,0.0,0.99473107,1.5169382e-05
0.8996098,2.6524067e-06,0.00608325,1.4066696e-05,1.8626451e-05,0.00011900067,0.0017795563,0.0042907298,0.005260527,0.0352588
0.0063641667,0.000116080046,0.99143136,0.0020047128,0.019566536,0.0002577901,0.00032567978,0.0006700456,0.00034415722,0.0041019022
0.99654186,0.0,8.106232e-06,8.940697e-08,2.682209e-07,2.4467707e-05,0.0027855337,3.1292439e-06,0.00025701523,8.59797e-05
0.74820906,5.930662e-06,0.00020039082,0.0025196373,9.536743e-07,0.00043147802,0.0062236786,0.010703057,0.6517725,0.0017307401
0.00033918023,0.83948845,0.0051728487,0.018164843,0.00014895201,0.02057615,0.06400022,0.0021579862,0.8749876,0.04314789
0.0001963675,1.2308359e-05,6.404519e-05,0.999851,0.00018814206,2.5957823e-05,0.00085663795,1.4871359e-05,0.00023052096,1.8775463e-06
0.00032499433,0.025177717,0.9233476,0.2528175,0.04104635,0.005738914,0.01211226,0.00028920174,0.96779764,0.0010035336
0.99550545,0.0,1.6778708e-05,2.9802322e-08,1.1920929e-06,1.3768673e-05,0.0004911423,2.6524067e-06,3.4213066e-05,0.00010046363
0.028477699,8.34465e-07,0.0019995868,6.854534e-06,4.8696995e-05,0.9276036,0.20072901,0.000957191,0.0005965829,0.008036822
0.98764247,0.0,0.00024205446,1.3738871e-05,8.34465e-07,0.00036919117,0.0012949705,0.0018202066,0.0003361702,0.0006938875
4.4465065e-05,0.000112205744,0.015227675,0.0014412999,0.0007992983,0.9981525,0.024931908,0.0014231801,0.5210754,0.0003465116
0.0014795661,1.8507242e-05,0.00015559793,0.9985379,0.0024317205,0.00011253357,0.0017999709,2.3633242e-05,0.00068083405,2.2232533e-05
8.511543e-05,0.7382645,0.11885637,0.9888685,0.0029716194,0.037421405,0.089909256,0.0037218928,0.7969774,0.00045901537
0.000330925,1.4901161e-06,0.002470076,7.355213e-05,0.00015848875,0.99875844,0.046293825,0.00031751394,0.00066161156,0.00015252829
0.017593712,0.0,5.0991774e-05,0.00048550963,7.987022e-06,7.95722e-06,0.0018868148,1.3709068e-06,0.98362684,1.4275312e-05
0.5042878,0.0,4.917383e-06,9.23872e-07,4.1127205e-06,3.5762787e-07,0.0005451143,8.940697e-08,0.75040925,0.00027313828
0.0062816143,2.8014183e-06,0.028678924,0.0009402633,0.945817,0.0004196465,0.014746845,0.0,0.84714377,0.00056758523
0.003129691,7.534027e-05,0.07284513,0.00163275,2.7060509e-05,0.00044205785,0.002606541,0.0015724301,0.9866315,0.00058820844
0.9578986,8.940697e-08,0.00014555454,1.4901161e-07,1.6987324e-06,0.0002462268,0.003595531,0.0003851354,0.0001835823,0.011537522
0.36623293,0.00018578768,0.017021567,0.00044357777,0.010143071,0.9165968,0.03857106,0.0027282238,0.0006209016,0.0022654831
0.6947994,1.6450882e-05,0.002340585,6.684661e-05,0.0,0.00012430549,0.0009255111,0.47981238,0.0010559857,0.027727395
0.9940813,0.0,3.951788e-05,3.5762787e-07,3.516674e-06,4.7028065e-05,0.00048998,1.335144e-05,7.793307e-05,0.0003745854
0.0019310415,1.7881393e-06,0.093670726,0.001083225,0.0016515255,0.00040081143,0.012475222,8.434057e-06,0.9825039,0.00024136901
0.00010159612,0.95944315,0.0031161308,0.01355198,4.979968e-05,0.011021942,0.056083977,0.00028792024,0.8350002,0.021415293
0.00012627244,0.00022861362,0.35821033,0.9892876,0.982965,0.007395506,0.008698851,9.834766e-07,0.00070539117,1.719594e-05
0.00029334426,0.9623122,0.019483387,0.0075131953,0.0015162528,0.037312776,0.10316375,0.00039419532,0.017041981,0.030064076
0.99663305,0.0,1.7106533e-05,2.682209e-07,2.9802322e-08,0.00012487173,0.00205791,3.3020973e-05,0.00014925003,2.9861927e-05
0.0024726093,8.6426735e-06,0.00074377656,0.00084096193,0.00035780668,0.00022998452,0.024537385,6.2286854e-06,0.9773557,0.0015173554
0.0043987334,0.0,2.193451e-05,5.9604645e-08,1.1056662e-05,2.8908253e-06,0.0026793182,0.0,0.96637124,0.000105679035
0.0002526939,0.00023433566,6.2584877e-07,5.90086e-06,5.2332878e-05,0.00046393275,0.9899849,1.4305115e-06,0.00015035272,0.017965615
0.085078984,1.7881393e-07,0.00016629696,0.00031393766,1.0639429e-05,1.0102987e-05,0.0015776753,5.4329634e-05,0.96031904,0.0010764003
0.017890632,6.753206e-05,0.45482898,9.10759e-05,0.00049835443,4.2825937e-05,0.00057157874,0.017133385,0.010909796,0.6888979
0.99305695,2.9802322e-08,0.00037410855,2.592802e-06,1.0728836e-06,0.00056007504,0.0007221401,0.0017029047,7.405877e-05,0.0005709827
0.9625068,0.0,0.00049105287,9.23872e-07,0.00033548474,4.61936e-05,0.0017182827,5.4836273e-06,0.0035870671,0.037908435
0.0007261932,7.7843666e-05,0.9775976,0.005725682,0.6966486,0.0004428923,0.0011278689,4.4107437e-06,0.0005685389,0.0003207028
0.00021344423,0.05427268,0.0012042224,0.99956864,0.09129593,0.016688704,0.4975015,0.0009113848,0.00024333596,0.0017387867
0.9907141,8.940697e-08,0.00024554133,3.9041042e-06,9.23872e-07,0.00034964085,0.0008689463,0.00046879053,8.7708235e-05,0.00031468272
0.6593337,4.8846006e-05,0.03998834,0.0003902316,2.6226044e-05,0.000631243,0.002939999,0.20448259,0.0025378168,0.096744984
0.00022298098,0.00037282705,0.013286054,0.0061701536,0.02471897,0.99827707,0.059495717,0.00022438169,0.0014021099,0.0002527833
0.21834809,3.84748e-05,0.0023717582,2.9802322e-05,0.0018785596,4.258752e-05,0.0035281181,7.5280666e-05,0.0024371743,0.87752175
8.9138746e-05,0.24799654,0.015609413,0.014533639,0.010894269,0.9168272,0.14069054,0.0013912022,0.036086917,0.015293837
0.9382644,1.7881393e-06,0.00085392594,0.000104248524,1.7881393e-07,0.00018140674,0.0013917387,0.16598225,0.0010068715,0.008649081
