0,1,2,3,4,5,6,7,8,9
0.9985151,0.0,6.854534e-07,2.9802322e-08,1.013279e-06,4.3213367e-06,0.0009473264,0.0,7.3194504e-05,5.3048134e-06
0.986093,3.5762787e-07,0.0004786253,0.0001604259,2.9802322e-07,0.0011560023,0.0009792745,0.021559864,0.00016513467,0.00027778745
0.0063957274,2.1964312e-05,0.028317928,0.0034109056,0.81442153,0.9577544,0.046450615,3.1352043e-05,0.0047773123,0.00027009845
1.9699335e-05,0.026810795,0.0028802454,0.99919087,0.04231161,0.026327789,0.55590916,0.00054964423,4.6223402e-05,0.00018051267
0.00057694316,5.066395e-07,3.0696392e-05,0.9993366,0.0014888346,4.082918e-06,0.0004094243,3.0994415e-06,0.00023901463,2.9206276e-06
0.9981683,0.0,4.6253204e-05,1.1920929e-07,0.0,0.00015947223,0.0010767281,0.0007703006,1.0639429e-05,1.40070915e-05
0.0021745265,8.940697e-08,3.1262636e-05,0.000107079744,3.9041042e-06,1.0669231e-05,0.008516759,2.0861626e-07,0.9912996,2.3126602e-05
1.5199184e-05,6.2584877e-07,0.00043278933,0.9994919,0.94501746,4.5120716e-05,0.004617721,0.0,0.0017110407,6.2584877e-07
2.1010637e-05,4.3809414e-06,3.260374e-05,0.11914748,0.00026223063,1.6957521e-05,0.0008432865,0.0,0.997656,1.013279e-06
0.00015488267,4.9442053e-05,9.23872e-07,8.314848e-06,5.930662e-06,0.0014690459,0.9890156,4.3213367e-06,0.00011256337,0.009295911
0.0006849766,8.586049e-05,0.75409794,0.002706945,0.000700742,0.0014551878,0.0045078993,0.0006236434,0.98928773,0.0003991425
0.0073714554,0.0,8.711219e-05,5.725026e-05,5.9604645e-08,4.3809414e-06,0.0007182658,1.3887882e-05,0.99179983,2.0861626e-06
4.3988228e-05,0.42233658,0.009566754,0.9878781,5.5104494e-05,0.0014991462,0.045369416,0.00016900897,0.82638896,6.556511e-06
0.0037691891,0.24740463,0.5853821,0.0002837479,0.00078457594,0.0017762184,0.004336059,0.0028514862,0.001981914,0.13289201
0.3301763,1.1920929e-07,2.4586916e-05,3.8564205e-05,8.940697e-08,1.4066696e-05,0.003006637,2.2172928e-05,0.91656303,2.1457672e-06
0.15016416,0.40840635,0.016399056,0.0062336326,4.8458576e-05,0.00322178,0.10190186,0.0066036284,0.28180403,0.019631088
4.258752e-05,2.3841858e-06,1.6719103e-05,0.99947786,0.0016838312,1.7285347e-06,0.0011912584,1.7881393e-07,0.108110875,2.9802322e-07
0.9986411,0.0,5.275011e-06,0.0,2.0861626e-07,3.5345554e-05,0.0010666549,1.758337e-06,1.859665e-05,6.4074993e-06
0.00016948581,0.7977078,0.0147277415,0.02090013,0.042684317,0.032835364,0.62935346,0.00010943413,0.05621755,0.02389586
3.954768e-05,0.0005970895,7.2717667e-06,0.0004402697,5.990267e-06,0.0044059753,0.63895196,2.861023e-06,0.95334613,0.000116467476
0.99726576,0.0,6.106496e-05,2.2947788e-06,5.364418e-07,0.00047436357,0.0011481643,0.000105917454,5.5909157e-05,1.9997358e-05
0.018887699,0.00029340386,0.98458874,0.007364601,0.0010563433,0.0010703206,0.00049600005,0.008915186,0.0016179085,0.0013584793
0.99814427,0.0,1.4722347e-05,1.7881393e-07,9.536743e-07,9.685755e-05,0.0008532405,4.9471855e-06,1.2785196e-05,1.1831522e-05
0.008041292,0.00026711822,0.11329466,0.0049445033,0.00014334917,0.00015518069,0.010867804,0.00019049644,0.97605884,0.00020286441
0.0143790245,0.0,8.609891e-05,7.8976154e-05,1.1384487e-05,2.3543835e-06,0.00086408854,1.7881393e-07,0.986375,9.5665455e-06
3.1650066e-05,0.015669644,0.70299333,0.054284424,0.20747194,0.87660444,0.020666718,0.0046013594,0.07494584,0.004414767
0.0051780343,0.00054371357,7.075071e-05,3.620982e-05,0.0006337464,0.013164401,0.9454864,2.5004148e-05,2.7805567e-05,0.029918462
0.99741393,0.0,2.6643276e-05,4.7683716e-07,0.0,9.2715025e-05,0.0009952784,0.0002194047,2.771616e-05,8.940697e-06
0.045431107,6.6161156e-06,5.1617622e-05,5.8978796e-05,0.0,2.1874905e-05,0.000119417906,0.96180856,0.0033672452,0.0016230047
2.5093555e-05,0.96362424,0.0025042295,0.015368044,4.8577785e-06,0.0035115778,0.048705637,4.8458576e-05,0.961717,0.00093638897
0.00043538213,0.0010590553,1.2516975e-06,5.8084726e-05,1.3738871e-05,0.00082346797,0.9897455,6.5267086e-06,0.00024306774,0.0044225454
4.851818e-05,0.004537195,8.076429e-06,0.00019302964,6.0856342e-05,0.01073873,0.97362566,8.493662e-06,0.05676976,0.007990181
0.0047036707,0.00029101968,3.33786e-06,1.3440847e-05,6.3568354e-05,0.00039720535,0.98157954,2.503395e-06,2.1785498e-05,0.0026932657
0.00026744604,4.6789646e-06,0.00025466084,0.99944186,0.00030359626,1.4960766e-05,0.0020276904,1.9937754e-05,1.0222197e-05,9.23872e-07
0.97157747,0.0,4.9471855e-06,1.2665987e-05,5.9604645e-07,1.4156103e-05,0.0017136931,1.2814999e-06,0.02892068,3.3676624e-06
0.9985133,0.0,7.4505806e-06,2.9802322e-08,6.556511e-07,7.748604e-05,0.0011843443,9.23872e-07,1.0430813e-05,5.90086e-06
0.99713117,0.0,2.5004148e-05,1.7881393e-07,8.940697e-07,0.00022923946,0.0035440326,2.6226044e-06,0.0002438426,3.6656857e-05
0.99854296,0.0,2.9802322e-06,0.0,4.7683716e-07,1.218915e-05,0.00054234266,4.172325e-07,9.655952e-06,3.8444996e-06
0.99860346,0.0,8.583069e-06,5.9604645e-08,1.2814999e-06,9.253621e-05,0.0010274351,1.1026859e-06,1.0877848e-05,6.198883e-06
0.00022274256,5.9604645e-08,0.00011521578,0.00019648671,8.940697e-07,5.930662e-06,0.0007106364,2.2351742e-06,0.9986974,3.6656857e-06
9.211898e-05,0.00022748113,0.9710182,0.012989789,0.031661004,0.021289825,0.002826482,0.0061309934,0.9774083,0.0039097965
0.9909938,0.0,2.0563602e-06,5.662441e-07,2.026558e-06,5.6922436e-06,0.002372533,2.0861626e-07,0.006754577,4.3809414e-06
0.00011345744,7.2717667e-06,0.009005964,0.00010883808,0.000100284815,0.9977337,0.037156254,0.0003927648,0.052283853,9.852648e-05
8.21352e-05,0.93228555,0.004369855,0.004925519,1.013279e-06,0.0016458333,0.022582471,0.0013940036,0.9487118,0.0031524599
0.0003658235,7.748604e-07,1.5676022e-05,8.2820654e-05,1.4901161e-07,4.6789646e-06,0.002383113,3.784895e-06,0.9970143,2.1100044e-05
0.07582113,1.013279e-06,1.859665e-05,1.5348196e-05,0.0,2.5957823e-05,0.00056928396,0.9744644,0.0009624064,0.002016306
0.1934807,0.0,0.0010193288,0.00010699034,1.0997057e-05,1.9967556e-05,0.0014518201,1.0877848e-05,0.9305477,8.612871e-05
0.02779591,0.0029399395,0.0048168004,0.025171667,3.245473e-05,0.002121836,0.10348719,0.011996597,0.8834027,0.0022381246
0.00022912025,0.86807996,0.027774215,0.00035864115,2.065301e-05,0.0010573566,0.012842536,0.00020331144,0.2763837,0.016303033
0.9990055,0.0,2.0861626e-07,0.0,1.4901161e-07,7.748604e-07,0.0009897947,2.9802322e-08,2.6524067e-05,7.1525574e-07
8.3476305e-05,5.942583e-05,0.00750041,0.0004885495,0.0005746782,0.9948135,0.06541398,0.0018767118,0.03319505,0.0015928447
0.0012829304,0.8465543,0.02837786,0.0026910007,0.007091403,0.01869893,0.18419999,0.00012519956,0.019812524,0.025968075
7.3730946e-05,1.963973e-05,0.012255818,0.00033968687,0.00071132183,0.999269,0.03132078,0.00051003695,0.31508484,0.00018954277
0.91993046,7.4505806e-07,0.00014325976,0.00023519993,4.4703484e-07,0.0001719892,0.004953444,0.00075885653,0.29179248,0.00011473894
0.87334895,5.3942204e-06,0.000109523535,2.4110079e-05,2.8014183e-05,0.00019648671,0.04153785,2.798438e-05,0.005599469,0.0011075139
0.0026199222,0.84345955,0.048558414,0.003950715,0.0010140836,0.013393074,0.08644897,0.00041511655,0.051103443,0.03142038
0.99812067,0.0,4.529953e-06,1.1920929e-07,8.940697e-08,3.2752752e-05,0.0026655793,2.7418137e-06,0.00031971931,4.7385693e-06
0.00030821562,0.9058945,0.0152588785,0.004661292,1.7821789e-05,0.005426854,0.036036223,0.008376092,0.004089594,0.015711665
0.9959894,0.0,2.69413e-05,2.130866e-05,3.5762787e-07,0.00049221516,0.00254485,7.170439e-05,0.0011934638,1.4454126e-05
0.0023649633,0.5156378,0.045290083,4.1246414e-05,1.5795231e-06,0.000166893,0.003011644,0.004736662,0.023202151,0.161264
0.9991102,0.0,1.847744e-06,0.0,1.1920929e-07,1.2904406e-05,0.0012714863,4.172325e-07,2.8312206e-06,6.2584877e-07
0.00037664175,4.529953e-06,0.010515034,0.0001398325,0.00016224384,0.99925226,0.021862447,0.0011786819,0.08105081,7.1793795e-05
0.00021702051,6.210804e-05,0.028335422,0.04746142,0.6007724,0.96260774,0.04833564,2.5421381e-05,0.000115811825,7.143617e-05
0.28996885,2.3841858e-06,0.0018899143,6.467104e-06,0.00013747811,1.3232231e-05,0.0022812486,5.751848e-06,0.32897797,0.23363796
0.27809316,0.00011879206,0.0024371147,0.004655361,5.6266785e-05,0.00026479363,0.023611099,0.00051122904,0.92267907,0.0029556751
0.99486315,8.940697e-08,0.00015115738,8.046627e-06,2.9802322e-07,0.0008338094,0.0012239516,0.00071519613,8.496642e-05,6.508827e-05
0.9973977,8.940697e-08,5.340576e-05,5.543232e-06,1.1920929e-07,0.0010703802,0.0024287999,0.00051274896,0.00045871735,1.6957521e-05
0.0001295507,0.00043609738,0.08865407,0.020211458,0.008495867,0.00028443336,0.013891995,3.4868717e-06,0.99457806,9.295344e-05
0.022192001,3.0606985e-05,0.0014158785,0.00027009845,0.0,0.00030326843,0.0035057664,0.6835723,0.0923062,0.02595985
0.017832935,5.9604645e-08,1.04010105e-05,4.172325e-07,0.0,2.5331974e-06,4.8339367e-05,0.9818174,8.225441e-06,0.00021559
0.27261585,0.0,0.00011214614,0.00010049343,1.2218952e-05,2.682209e-06,0.0009845197,6.2584877e-07,0.93701017,4.7653913e-05
0.9987329,0.0,2.3543835e-06,2.9802322e-08,1.4901161e-07,1.579523e-05,0.0009226501,8.940697e-07,1.9848347e-05,1.937151e-06
8.4728e-05,1.874566e-05,0.00015670061,0.99957514,0.000256747,1.7255545e-05,0.002135098,1.6868114e-05,0.00024482608,1.7285347e-06
0.0021869838,2.1278858e-05,0.00043797493,0.9979415,4.4584274e-05,1.7672777e-05,0.0014491677,0.0003169775,4.336238e-05,1.7821789e-05
1.7225742e-05,9.179115e-06,0.00030636787,0.9997754,0.00085276365,1.758337e-05,0.0010284781,8.046627e-06,0.000308007,1.2516975e-06
0.0017183721,2.3841858e-07,8.368492e-05,0.000116825104,7.778406e-06,1.04904175e-05,0.0046058595,1.5199184e-06,0.9934871,6.1929226e-05
0.82337034,1.847744e-06,0.00018712878,0.00014904141,0.0,9.649992e-05,0.0009518564,0.52372104,0.00028526783,0.0009701252
0.9959202,2.9802322e-08,7.998943e-05,8.046627e-07,6.2584877e-07,0.00031736493,0.0036824346,0.00012543797,0.0002066493,9.9629164e-05
0.92114997,5.811453e-06,2.6762486e-05,0.00011634827,2.9802322e-08,0.00036603212,0.070673406,0.0018673241,0.029506713,1.0162592e-05
0.75285566,3.3974648e-06,0.00016447902,0.16459978,1.9967556e-06,0.00049462914,0.0042389333,0.001178056,0.004473239,8.7320805e-06
0.9985179,0.0,8.910894e-06,0.0,2.9802322e-07,6.005168e-05,0.0010634065,2.8014183e-06,9.5665455e-06,6.7949295e-06
0.017049402,0.0,0.00030061603,0.0007685423,0.9994366,1.7493963e-05,0.0020958781,0.0,0.00020101666,4.6253204e-05
0.9986985,0.0,1.4901161e-05,1.7881393e-07,8.940697e-08,0.00015473366,0.0020267665,2.6375055e-05,1.963973e-05,1.8775463e-06
0.9987839,0.0,2.503395e-06,8.940697e-08,8.940697e-08,2.2411346e-05,0.0015355647,2.682209e-06,4.1097403e-05,1.4603138e-06
0.00033140182,5.9604645e-08,0.005225748,0.00025057793,0.00044876337,5.272031e-05,0.0016382039,1.2516975e-06,0.9968463,3.6090612e-05
0.996206,0.0,0.00013715029,2.4437904e-06,2.0861626e-07,0.0006159842,0.0010407567,0.000585258,8.687377e-05,5.9068203e-05
0.0005713701,7.888675e-05,0.004427552,0.0005609691,0.0003272593,0.9545953,0.07390469,0.0004515946,0.85537136,0.00051644444
0.0066606402,0.0,6.3180923e-06,7.987022e-06,0.25970167,5.9604645e-08,1.2814999e-06,0.0,0.0001424253,0.9890652
0.0002824664,1.2874603e-05,9.351969e-05,0.9993793,0.0005991161,2.5004148e-05,0.0032521188,4.261732e-06,0.002409488,8.6426735e-07
0.0005174279,0.83377874,0.05867502,0.15434957,0.0016816556,0.018398553,0.065588206,0.0002719164,0.62322545,0.0042096972
0.041326314,1.9818544e-05,0.00039675832,0.00054582953,3.2484531e-06,3.734231e-05,0.006780654,0.00020423532,0.97325397,0.000567317
0.99768066,0.0,9.23872e-07,1.1920929e-07,1.4901161e-07,5.185604e-06,0.0017063022,2.682209e-07,0.0005815625,1.1920929e-06
0.00024268031,0.0,0.0,0.0,7.748604e-07,0.0,0.0,0.0,0.0005886555,0.99877536
0.7272903,9.5665455e-06,2.9623508e-05,4.261732e-05,0.0,5.465746e-05,0.0020138621,0.83391464,0.015815347,0.00018265843
2.965331e-05,0.00028422475,0.20547041,0.0020562708,0.0026136935,0.9997692,0.006292641,0.0010582507,0.32783517,4.8339367e-05
0.78976464,0.0,2.9802322e-06,1.385808e-05,5.0365925e-06,3.6656857e-06,0.002225995,4.4703484e-07,0.5397301,1.7613173e-05
0.0008517206,0.0013834834,0.89813447,0.03211361,0.007925451,0.0019266009,0.0067310035,0.0009536445,0.97092736,0.0016195774
0.96387637,2.3841858e-07,0.0006150007,4.4614077e-05,1.1920929e-06,0.00020438433,0.00083601475,0.0069355965,0.0005221367,0.008925617
1.5556812e-05,0.011905074,0.0023259223,0.99982977,0.00456509,0.0017843246,0.07737821,0.00011512637,0.009022683,8.314848e-06
0.0043315887,3.9339066e-06,0.00031545758,5.066395e-07,1.6987324e-06,8.863211e-05,0.002283305,0.0005195737,0.0028549433,0.82831454
0.99280626,2.3841858e-07,0.00012552738,8.2969666e-05,1.7881393e-07,0.0016174614,0.0025449991,0.0016359389,0.0017114282,5.030632e-05
0.99415123,0.0,4.068017e-05,5.3048134e-06,1.7732382e-05,0.00024241209,0.0020866692,3.8146973e-06,0.0013536811,5.00679e-05
0.0010672212,0.0,4.6223402e-05,0.00038090348,0.0005965829,1.0281801e-05,0.0017970204,2.0861626e-07,0.9908924,0.00022545457
0.38335294,2.9802322e-07,0.0020951033,8.639693e-05,0.00075012445,1.3321638e-05,0.0011590421,2.0056963e-05,0.6129835,0.14948004
0.9982578,0.0,9.23872e-07,0.0,1.5497208e-06,3.3080578e-06,0.00057271123,2.9802322e-08,1.8656254e-05,1.2218952e-06
1.7255545e-05,0.5752485,0.0590744,0.9954487,0.0020026863,0.020514965,0.14763814,0.00141114,0.30648744,6.476045e-05
5.1021576e-05,1.3709068e-06,0.0076670647,0.00015896559,4.0978193e-05,0.99973255,0.012999624,0.0013096035,0.006380141,1.7613173e-05
1.707673e-05,0.00034824014,0.23909846,0.9900784,0.0026034415,0.0007248819,0.0006328523,0.00016236305,0.16432476,1.5109777e-05
0.9949838,0.0,5.841255e-06,6.854534e-07,7.1525574e-07,2.026558e-05,0.0010649562,8.34465e-07,0.0014419556,2.026558e-05
3.3527613e-05,2.7000904e-05,0.00042393804,0.9996871,0.0004911721,3.0696392e-05,0.0013233125,6.556511e-06,0.00042948127,3.874302e-07
0.99610347,0.0,4.503131e-05,5.841255e-06,3.5762787e-07,0.00034588575,0.0010733306,0.0001423955,4.9948692e-05,1.66893e-05
0.00011846423,1.7881393e-07,0.0033085942,0.71564907,0.99946094,3.6746264e-05,0.006577879,0.0,4.2527914e-05,1.3828278e-05
2.348423e-05,0.5617322,0.0003221929,0.09869841,5.9604645e-06,0.00064972043,0.108409345,5.4240227e-06,0.9907581,3.6776066e-05
0.9987345,0.0,1.0728836e-06,0.0,1.8775463e-06,7.3313713e-06,0.0007942021,2.9802322e-08,2.4080276e-05,3.0994415e-06
0.00022885203,0.08264583,0.9238856,0.11564967,0.0034209788,0.0038519502,0.005515814,0.00074893236,0.9602461,0.0003361702
0.9898135,0.0,0.00080659986,2.3841858e-07,6.604195e-05,0.000338763,0.002726227,3.0696392e-06,6.133318e-05,0.0003901124
0.000111192465,0.00016483665,0.015087634,0.00054988265,0.005314201,0.98907197,0.044798225,0.00017875433,0.90783775,0.0017352402
5.2273273e-05,2.7149916e-05,0.036461413,0.0009952188,0.00058430433,0.9967548,0.025589019,0.00034362078,0.0007239878,3.5703182e-05
0.0012375116,0.00011622906,0.0010650158,0.9989507,0.00031036139,0.00013825297,0.0056328177,9.1314316e-05,4.503131e-05,2.2649765e-06
0.0003799498,1.3887882e-05,2.8908253e-05,1.4960766e-05,0.0,2.2917986e-05,0.00056785345,0.98971796,0.0066473186,0.02680567
0.9988405,0.0,4.4703484e-07,0.0,5.9604645e-07,2.682209e-06,0.0012509525,2.9802322e-08,2.6196241e-05,8.34465e-07
0.9980402,0.0,1.4573336e-05,8.046627e-07,1.4901161e-07,0.00012543797,0.0014331043,4.8935413e-05,8.261204e-05,4.6491623e-06
0.9986179,0.0,2.115965e-06,0.0,1.9073486e-06,1.692772e-05,0.001340121,1.4901161e-07,2.026558e-05,1.2516975e-06
0.35730886,1.7881393e-07,6.0141087e-05,0.00025382638,2.1755695e-06,7.6293945e-06,0.002455622,8.821487e-06,0.94534826,3.3915043e-05
0.9350201,2.3841858e-07,0.00012713671,2.0563602e-05,0.00013795495,5.1409006e-05,0.0050168335,1.5199184e-06,0.16734442,0.0005508363
0.00024268031,0.0,0.0,0.0,7.748604e-07,0.0,0.0,0.0,0.0005886555,0.99877536
0.037294805,0.00018391013,0.057873964,1.8805265e-05,0.0014396012,9.021163e-05,0.0025410652,0.0002859831,0.04813558,0.8016745
0.0009250343,0.27362645,0.010867238,0.00057423115,1.3321638e-05,0.0014487505,0.02288267,0.09309074,0.009772778,0.52456206
0.0024742186,0.0,0.00014600158,0.00024831295,1.0073185e-05,3.1292439e-06,0.0019080639,4.7683716e-07,0.9957756,9.834766e-06
0.9849795,0.0,5.6296587e-05,4.798174e-06,3.8027763e-05,6.303191e-05,0.0012411177,2.95043e-06,0.009732723,0.00038570166
0.00021925569,0.93763775,0.01031816,0.0019096434,0.0006465614,0.033700824,0.18495089,0.00025841594,0.071673155,0.03303954
0.0028764606,1.7881393e-07,4.2259693e-05,0.0004181862,2.503395e-06,3.0100346e-06,0.0017757714,2.3543835e-06,0.9948897,1.513958e-05
0.8157085,5.6028366e-06,2.4318695e-05,1.4305115e-05,2.9206276e-06,0.00045278668,0.4929785,8.633733e-05,0.00031891465,0.00017821789
0.99159354,0.0,5.811453e-06,1.4901161e-07,8.6426735e-07,7.927418e-06,0.001432389,1.4901161e-07,0.0038791,7.033348e-06
0.0035676658,0.62788844,0.26528192,0.8559571,0.004912406,0.024337381,0.115064085,0.013743013,0.01283443,0.0018654168
0.0009112954,2.5779009e-05,0.0006700456,0.9924102,0.02347967,0.00021776557,0.0122181475,6.8992376e-05,0.00018534064,6.124377e-05
0.19387832,1.1622906e-06,0.000105172396,0.711061,0.010974973,3.9756298e-05,0.0011764765,1.4901161e-06,0.025709957,4.3094158e-05
0.967079,0.0,3.7252903e-05,3.0994415e-06,5.722046e-06,1.2844801e-05,0.0032286942,1.8775463e-06,0.034454316,0.00012642145
0.29549262,5.9604645e-07,0.004224181,0.00026455522,1.9013882e-05,0.00016018748,0.005649209,0.000107973814,0.87221587,0.00010639429
0.0048670173,0.0,0.00015228987,0.00032123923,3.3587217e-05,6.824732e-06,0.002091676,2.9802322e-07,0.99368954,1.5735626e-05
0.7676492,2.4437904e-06,0.00031247735,8.636713e-05,1.013279e-06,8.2582235e-05,0.008687288,0.00052911043,0.79640055,0.00017806888
0.99553174,2.9802322e-08,1.22487545e-05,1.7285347e-06,1.7881393e-07,0.0001039803,0.0025492907,8.532405e-05,0.0030803084,8.881092e-06
0.9980274,0.0,4.23193e-06,2.3841858e-07,4.172325e-07,3.5762787e-05,0.0015217364,1.2218952e-06,0.00017145276,8.821487e-06
0.9986866,0.0,7.748604e-07,0.0,2.9802322e-07,2.592802e-06,0.00048094988,0.0,1.0073185e-05,1.2218952e-06
0.00014463067,2.8908253e-06,8.752942e-05,0.9996526,0.0040056407,1.6361475e-05,0.0022239983,1.7881393e-06,5.301833e-05,6.2584877e-07
0.018554509,0.0,2.732873e-05,8.821487e-06,6.2584877e-07,2.3841858e-06,0.0024530888,4.172325e-07,0.9832798,8.901954e-05
0.99605566,8.940697e-08,5.13494e-05,8.165836e-06,2.0861626e-07,0.00046810508,0.0018697977,0.00038543344,0.0005649328,4.0858984e-05
0.9982351,0.0,1.2427568e-05,1.4901161e-07,2.2351742e-06,8.696318e-05,0.00093096495,2.026558e-06,1.9609928e-05,9.4771385e-06
0.010311514,1.1771917e-05,7.477403e-05,0.00073191524,4.1276217e-05,6.5654516e-05,0.028391987,5.6028366e-06,0.969684,0.00025889277
0.99884844,0.0,7.748604e-07,0.0,1.7881393e-07,4.3213367e-06,0.0007609427,1.1920929e-07,1.9788742e-05,1.6093254e-06
0.94280064,0.0,5.066395e-06,1.8775463e-06,5.632639e-06,1.3709068e-06,0.0008112192,8.940697e-08,0.069004804,1.2099743e-05
0.0045154393,0.17838505,0.04959902,2.8371811e-05,5.3346157e-06,0.00023972988,0.0051211417,0.005384028,0.005106777,0.1876522
0.0016781688,0.0004518926,4.8577785e-06,7.05421e-05,3.6001205e-05,0.0014901459,0.9781263,2.0325184e-05,2.4527311e-05,0.004302591
0.00031137466,0.0012642741,0.038190693,0.010500759,0.00724259,0.98922414,0.11282733,0.0041653514,0.49880126,0.0020526648
0.00038722157,0.0,9.9658966e-05,0.00020030141,1.5437603e-05,5.00679e-06,0.004691243,5.9604645e-08,0.997046,3.5762787e-06
0.84700704,1.7881393e-07,0.0063205957,2.5629997e-06,0.00035572052,4.5776367e-05,0.0007071793,3.2007694e-05,0.00064605474,0.2791323
9.021163e-05,1.3411045e-06,0.0008892119,0.0014221668,0.9828713,2.7686357e-05,0.034600228,0.0,0.98122585,6.106496e-05
0.0006122291,0.63193804,0.30895346,0.018389344,0.11785546,0.06293923,0.06755093,5.2422285e-05,0.008806765,0.0077022314
7.364154e-05,3.2782555e-07,4.4047832e-05,0.9993912,0.033337027,4.0233135e-06,0.0010917783,2.9802322e-07,0.00037279725,1.8775463e-06
0.99861884,0.0,9.328127e-06,8.940697e-08,1.7881393e-07,6.41644e-05,0.00090026855,6.645918e-06,1.4305115e-06,1.1026859e-06
0.70686597,1.0699034e-05,0.0006572008,7.274747e-05,0.0,1.6540289e-05,0.0002681911,0.639313,0.00036287308,0.012527585
0.0017772913,1.3411045e-06,0.0036939383,6.464124e-05,0.00016272068,0.99694884,0.041969,0.0008698106,0.0002540946,7.787347e-05
0.00030061603,0.0,1.7881393e-07,0.0,1.4305115e-06,0.0,8.940697e-08,0.0,0.00040510297,0.9983686
1.6391277e-05,0.89244354,0.0021975636,0.00606516,1.4603138e-06,0.0004082024,0.028722137,1.5199184e-05,0.98344016,0.00015974045
9.658933e-05,0.0014271438,0.00025102496,0.99905735,0.000102341175,9.7960234e-05,0.030948043,9.4771385e-05,0.15848592,1.0848045e-05
0.0046690702,2.115965e-06,0.0002374053,0.0005065799,2.9802322e-07,1.21593475e-05,0.0018489361,0.0001321733,0.9931331,3.9815903e-05
0.00023511052,0.00012862682,5.632639e-06,4.172325e-06,1.9669533e-06,0.00039467216,0.1994594,2.3841858e-07,0.9831899,0.0005013943
0.9959382,0.0,2.82228e-05,2.026558e-06,2.3841858e-06,0.00021320581,0.0022921264,5.543232e-06,0.00072950125,3.9190054e-05
0.36036223,0.0,3.6597252e-05,6.788969e-05,6.854534e-07,6.467104e-06,0.0034695566,3.5464764e-06,0.94935,6.3478947e-06
9.4652176e-05,0.0,3.2514334e-05,0.00010406971,0.00045463443,3.1292439e-06,0.0022980273,0.0,0.9978436,3.4570694e-06
0.004058689,0.07340589,0.0012957752,0.0072886646,0.032224625,0.011357069,0.8958849,4.1663647e-05,0.00033664703,0.04551488
0.9984542,0.0,3.5762787e-06,2.9802322e-08,1.1026859e-06,4.5359135e-05,0.0026070476,3.5762787e-07,1.1354685e-05,1.7881393e-06
0.9981604,0.0,4.529953e-06,5.9604645e-08,1.6093254e-06,2.5510788e-05,0.0010565519,5.662441e-07,2.2232533e-05,6.1392784e-06
0.0013149977,0.0,1.2725592e-05,5.364418e-07,8.285046e-06,2.9802322e-08,7.688999e-06,8.940697e-08,0.003282398,0.9953581
0.99562395,2.9802322e-08,0.00025373697,4.976988e-06,3.1590462e-06,0.0020575821,0.0019517541,0.00027787685,2.0802021e-05,4.902482e-05
0.0018845499,0.86573076,0.0139577985,0.0012240708,2.6106834e-05,0.0015848577,0.08000809,0.00124681,0.061058253,0.018939316
1.7136335e-05,8.34465e-07,0.00095784664,0.9990994,0.99118674,9.1552734e-05,0.0059999824,0.0,0.0010654628,2.9802322e-07
0.005655974,3.6358833e-06,3.874302e-07,8.940697e-08,2.56598e-05,0.00038403273,0.9803615,1.4901161e-07,1.424551e-05,0.0014893413
0.9990026,0.0,1.001358e-05,2.9802322e-08,8.940697e-08,5.915761e-05,0.0012958646,4.2021275e-05,3.516674e-06,1.9073486e-06
0.0013008714,0.010289133,0.9549643,0.009259105,0.00064253807,0.00028324127,0.0013778508,0.0032939017,0.7150908,0.0034886003
1.835823e-05,0.0,0.0083017945,1.1920929e-07,2.95043e-06,0.99809974,0.011222869,7.1823597e-06,0.035861313,0.000117361546
0.99831724,0.0,3.0100346e-06,1.1920929e-07,6.854534e-07,1.4394522e-05,0.0008382201,5.364418e-07,5.3584576e-05,4.351139e-06
0.00017395616,6.574392e-05,0.006826043,8.329749e-05,3.20971e-05,0.90501,0.07544488,0.0042711496,0.0036169887,0.005155802
0.00014826655,1.1920929e-07,1.6570091e-05,4.0382147e-05,0.0,2.2053719e-06,0.0002746582,1.552701e-05,0.99872285,4.261732e-06
3.132224e-05,0.008219093,0.00040209293,0.0017172694,0.00033316016,0.27919614,0.8027585,6.28531e-05,0.18912357,0.015494674
0.00017997622,0.7691572,0.13199231,0.853436,0.0032316744,0.022908747,0.099813014,0.0005659759,0.123239964,0.00019234419
8.4877014e-05,2.1845102e-05,0.029611379,0.00038716197,0.00046664476,0.9997627,0.013961881,0.00089877844,0.110648304,4.3839216e-05
0.40576437,0.0026634336,0.08042097,0.0007291436,0.0021430254,0.001388967,0.009733558,0.0013928115,0.009813279,0.28797954
0.8495296,0.0,1.7940998e-05,6.2286854e-06,1.3113022e-05,2.1457672e-06,0.0015385151,1.4901161e-07,0.3884216,3.3408403e-05
0.33426636,7.748604e-07,0.00010165572,0.00032496452,1.4901161e-07,3.6001205e-05,0.003532946,0.0004951954,0.94141257,5.7458878e-05
5.8054924e-05,0.00027284026,0.094884545,0.0011706054,0.0024428368,0.9880444,0.020900398,0.0010947287,0.032530487,0.0014360249
0.00026270747,0.03599763,0.64094806,0.010811657,1.3411045e-05,0.00016629696,0.0026707053,0.0013594627,0.9781415,0.0003066659
0.024287552,0.00064614415,0.009869903,0.14257884,0.043841213,0.0009993613,0.029116958,6.2286854e-06,0.93320084,0.0002014637
0.00036418438,0.0004066527,0.012747794,0.00026711822,0.0019165874,0.90516984,0.08328897,0.00010102987,0.8556731,0.0042910576
0.9845036,6.854534e-07,0.0002913475,5.9962273e-05,2.3841858e-07,0.000734359,0.0015518069,0.017206311,0.0039489567,0.00070506334
0.95972896,1.1920929e-07,0.0003312528,2.3126602e-05,0.00024837255,0.00012263656,0.0023611486,8.881092e-06,0.031585723,0.0111498535
0.0015313327,1.4781952e-05,0.013956547,0.0030022562,0.002898723,0.92772055,0.033142895,0.0039796233,0.020486295,0.003981501
0.00024026632,0.00022777915,0.9873591,0.021344095,0.040922135,0.0030255318,0.0014430285,0.00013151765,0.9506427,0.00017893314
2.3841858e-05,0.6279169,0.5282241,0.0085479915,0.028908074,0.18534607,0.011462659,3.477931e-05,0.69849974,0.0019210279
0.0040045977,0.152264,0.0021669567,0.11200476,0.0041822195,0.012909651,0.6226136,0.00015291572,0.5124093,0.011799425
0.005054325,1.3709068e-06,0.0031244457,0.117639005,0.9972596,0.00014859438,0.015894055,2.9802322e-08,9.2417e-05,0.00017258525
0.07336435,9.7841024e-05,0.9588023,0.0011998713,0.029405683,0.0014792681,0.0035888553,0.00536713,6.7323446e-05,0.004895836
0.59184957,5.9604645e-08,0.00012904406,0.00025105476,7.5399876e-06,1.0073185e-05,0.001832515,1.257658e-05,0.8187052,0.00023707747
3.9994717e-05,0.023782492,0.57456684,0.9863322,0.701668,0.022076994,0.007537365,1.3023615e-05,0.004158616,1.0430813e-05
0.99903977,0.0,1.5795231e-06,0.0,2.0861626e-07,1.052022e-05,0.0009916723,1.4901161e-07,1.2725592e-05,1.8775463e-06
0.25981057,5.105138e-05,1.8715858e-05,1.2874603e-05,2.115965e-06,0.0006725192,0.7948922,8.714199e-05,0.0009649098,0.00055903196
6.0617924e-05,2.3841858e-07,0.00039851665,0.0003694892,0.09664667,0.000112980604,0.012546986,0.0,0.9958713,9.068847e-05
0.08476129,2.9802322e-08,2.0980835e-05,0.9483176,2.4914742e-05,3.671646e-05,0.0003052354,0.0011601448,6.377697e-06,0.00071400404
0.99847704,0.0,4.7385693e-06,5.9604645e-08,2.0861626e-07,1.2785196e-05,0.00084623694,2.2947788e-06,6.109476e-06,2.5331974e-06
0.97930247,0.0,0.00010743737,0.00053572655,4.4375658e-05,0.00024989247,0.00032439828,8.8483095e-05,0.00012940168,0.0009885728
0.0020980835,1.7881393e-07,0.00053945184,0.00030982494,0.07301736,2.3007393e-05,0.004463941,0.0,0.98211646,6.148219e-05
0.00071012974,8.6426735e-07,0.006175399,0.00013765693,0.00014048815,0.99925715,0.022330403,0.00095674396,0.0010846257,2.783537e-05
0.9979859,0.0,5.4836273e-06,5.9604645e-08,1.21593475e-05,3.516674e-05,0.0010322332,1.1920929e-07,1.758337e-05,6.4969063e-06
4.762411e-05,6.8843365e-05,0.044112355,0.9936521,0.0005953014,0.00010499358,0.00039964914,5.1170588e-05,0.00018662214,3.695488e-06
0.9973545,0.0,4.941225e-05,8.940697e-08,2.3543835e-06,0.00019297004,0.0037781596,2.8014183e-06,5.570054e-05,3.6984682e-05
0.0013973415,1.847744e-06,1.0102987e-05,9.745359e-06,0.0,3.1888485e-06,0.00013127923,0.988322,0.000110298395,0.00042581558
0.00040966272,9.6559525e-05,5.4240227e-06,0.00011917949,9.268522e-06,0.025565952,0.95204854,3.555417e-05,0.019368798,0.0013104677
0.00033167005,2.9802322e-08,0.00021731853,7.176399e-05,3.8146973e-06,3.7550926e-06,0.0005157888,9.536743e-07,0.998001,1.1593103e-05
0.9984479,0.0,5.2154064e-06,1.1920929e-07,1.013279e-06,3.8564205e-05,0.0007570684,8.34465e-07,1.6182661e-05,5.00679e-06
0.13209543,1.1920929e-06,0.00076538324,0.00027143955,5.0991774e-05,1.463294e-05,0.004086107,2.0056963e-05,0.930845,0.0034887493
0.0027951598,3.2782555e-07,0.007243663,3.5136938e-05,0.00011450052,0.99728656,0.0154925585,0.000882566,0.0001333952,2.8848648e-05
0.005034685,2.682209e-07,1.4275312e-05,0.9978068,0.0016077757,1.4901161e-06,0.00025048852,1.937151e-06,0.0013552904,1.8179417e-05
0.9384723,2.3841858e-07,0.0017595589,5.4329634e-05,0.00031986833,0.00030946732,0.0026552677,3.3527613e-05,0.033661216,0.008615404
0.0010659099,0.8115281,0.041926503,0.00059473515,2.5451183e-05,0.003061533,0.022928387,0.0072518885,0.013974935,0.058350563
0.9981016,0.0,1.7881393e-06,5.9604645e-08,2.3841858e-07,9.030104e-06,0.0011285841,4.172325e-07,7.247925e-05,2.0861626e-06
0.9960183,0.0,3.6418438e-05,2.3245811e-06,1.1920929e-07,0.00018003583,0.0016762316,0.0002272129,0.00014403462,3.0577183e-05
4.851818e-05,0.00027769804,0.00091543794,0.9995077,0.004956126,0.0004093945,0.0060959756,6.80387e-05,0.048377335,2.3305416e-05
0.9988521,0.0,1.4007092e-06,0.0,2.682209e-07,9.179115e-06,0.0010315776,2.0861626e-07,3.746152e-05,4.3809414e-06
2.6196241e-05,2.2053719e-06,0.009935051,0.00021255016,9.828806e-05,0.9992392,0.022065192,0.0012280345,0.0014015734,9.083748e-05
0.00020703673,0.6861752,0.031991273,0.011469603,2.2619963e-05,0.002709955,0.031024039,0.0006170571,0.9556675,0.0010302663
0.9985788,0.0,2.413988e-06,2.9802322e-08,1.6093254e-06,1.4990568e-05,0.0009611845,1.4901161e-07,5.018711e-05,3.784895e-06
0.99854976,0.0,3.874302e-06,2.9802322e-07,3.5762787e-07,5.710125e-05,0.0012812018,1.7881393e-06,2.1457672e-05,1.1324883e-06
0.052258223,4.4971704e-05,1.8060207e-05,1.2636185e-05,8.687377e-05,0.0010722876,0.9293784,1.2308359e-05,1.21593475e-05,0.0013273358
0.0051748753,1.4901161e-07,4.261732e-06,1.1920929e-06,0.0,8.6426735e-07,0.000100284815,0.9890791,1.2606382e-05,0.00052785873
0.00010305643,1.013279e-06,0.0015639663,4.7534704e-05,4.544854e-05,0.99567425,0.11835754,0.00018545985,0.0019067526,0.00017616153
3.3706427e-05,0.9271431,0.0689379,0.0021562278,0.00016763806,0.040818423,0.010381997,5.608797e-05,0.5281285,0.0021114051
0.99847436,0.0,2.0086765e-05,1.7881393e-07,9.23872e-07,0.00024735928,0.0019208491,3.3080578e-06,3.5732985e-05,7.987022e-06
0.00043347478,0.0,0.00015118718,0.0028531253,1.31726265e-05,5.096197e-06,0.00087347627,3.874302e-07,0.99820393,1.0430813e-06
0.99835175,0.0,4.7683716e-06,1.7881393e-07,2.0861626e-07,3.6001205e-05,0.0010541677,3.874302e-06,3.0994415e-05,4.23193e-06
1.49309635e-05,4.440546e-06,8.621812e-05,0.9999405,0.00605008,2.7745962e-05,0.004186064,1.4901161e-06,0.00017720461,5.9604645e-07
0.0076054335,5.3346157e-06,0.0002605617,6.106496e-05,8.505583e-05,0.72407943,0.56200653,0.00013586879,7.015467e-05,0.0015912354
0.9942928,2.9802322e-08,0.00013634562,4.3213367e-06,2.0861626e-07,0.00031489134,0.00066164136,0.0027567744,3.5196543e-05,0.00018620491
0.0006168783,0.018887877,8.621812e-05,0.0009111464,0.00012904406,0.008699805,0.69206387,1.2367964e-05,0.9044518,0.0027368367
0.97786,1.1622906e-06,0.00042116642,9.971857e-05,5.2452087e-06,0.0009191334,0.004054308,0.00092729926,0.029577792,0.0013208091
0.9966465,0.0,1.2278557e-05,3.874302e-07,1.1622906e-05,7.3462725e-05,0.0011957586,6.854534e-07,3.1411648e-05,1.3947487e-05
0.99847007,0.0,4.440546e-06,1.7881393e-07,1.1920929e-07,3.1650066e-05,0.0012710392,3.695488e-06,2.1368265e-05,1.9967556e-06
0.0059244335,0.0,5.0991774e-05,8.922815e-05,1.1265278e-05,1.0728836e-06,0.0010612607,2.9802322e-08,0.9938003,5.3048134e-06
0.05621499,1.4901161e-07,0.00021570921,0.00010111928,1.5795231e-06,6.4074993e-06,0.00091943145,3.4958124e-05,0.9783382,0.00010064244
0.049446523,5.8710575e-06,0.0015967786,0.0008985996,0.0011087656,5.4180622e-05,0.0065912306,4.5120716e-05,0.8922032,0.023419082
0.9430998,0.0,1.0311604e-05,4.827976e-06,2.1755695e-06,8.046627e-06,0.0018249154,1.3411045e-06,0.23166722,1.5467405e-05
0.0005213022,4.172325e-07,2.0176172e-05,0.9991279,0.00016763806,1.8537045e-05,0.00060650706,2.0623207e-05,0.0004132092,1.3530254e-05
0.029586226,3.2782555e-06,0.0003427267,4.7385693e-05,0.0,2.7805567e-05,0.004802048,0.0024706423,0.9764152,0.00031480193
2.6106834e-05,0.00060009956,0.009841979,0.9988445,0.00013831258,0.00012874603,0.0006495118,4.9620867e-05,0.08974838,2.0563602e-06
4.643202e-05,1.0222197e-05,9.074807e-05,0.999787,0.0003054142,1.591444e-05,0.0029180646,1.3709068e-05,0.00022351742,1.9967556e-06
0.99352634,8.940697e-08,0.00012263656,4.014373e-05,1.1920929e-07,0.000790149,0.0011230111,0.0016568303,0.00014266372,3.9488077e-05
0.042815536,0.0,0.0001231432,1.9311905e-05,0.06484404,2.8312206e-06,0.0009573102,0.0,0.84676594,6.005168e-05
1.7642975e-05,0.00088116527,0.002853483,0.89937747,0.99412245,0.0062489808,0.394036,1.4901161e-07,0.00062537193,0.000106573105
0.9984968,0.0,1.013279e-06,8.940697e-08,1.1026859e-06,1.0699034e-05,0.0008177757,0.0,7.867813e-06,4.172325e-07
0.00048211217,7.867813e-06,0.0002746284,0.00013935566,1.3709068e-06,2.3543835e-05,0.0031152368,2.1547079e-05,0.9950311,0.00014328957
0.008882225,2.9802322e-08,0.0008312166,0.0013713241,8.007884e-05,1.22487545e-05,0.0019782186,4.7683716e-07,0.98962986,5.5134296e-06
0.00033670664,0.0,1.4662743e-05,0.00017130375,7.95722e-06,1.847744e-06,0.0017166734,0.0,0.99745506,2.6226044e-06
0.0012496114,0.8810481,0.020236254,0.00030305982,4.172325e-07,0.00029596686,0.004713416,0.0030750036,0.3232267,0.038556963
0.0001680553,0.0,7.987022e-06,0.99939555,0.3710938,1.3411045e-06,0.000102996826,0.0,0.00010573864,6.2286854e-06
0.00014179945,0.0030268133,0.32695854,0.007383108,0.01564455,0.9875613,0.016918123,0.0014626384,0.0046215057,0.0003196895
0.0020399392,2.3543835e-06,0.004873842,6.917119e-05,4.929304e-05,0.9964206,0.05127862,0.0018297434,0.0009762347,0.0001616478
7.712841e-05,5.3346157e-06,0.0058282316,0.0015542805,0.00063735247,0.99839413,0.05564639,0.00069898367,0.0011077821,3.5464764e-05
0.9964029,8.940697e-08,4.4077635e-05,2.7805567e-05,1.4901161e-07,0.0006146729,0.0014753938,0.00029051304,0.00025129318,1.0967255e-05
0.00082942843,5.9604645e-08,7.212162e-06,0.00010693073,2.0861626e-07,4.5001507e-06,0.00253281,2.0861626e-07,0.99764574,1.1622906e-06
0.007905781,2.9802322e-08,4.3332577e-05,0.00015887618,5.9604645e-07,2.771616e-06,0.0020329356,1.2516975e-06,0.9940963,3.5464764e-06
0.001247257,2.9802322e-07,0.0002566576,0.00022643805,8.940697e-08,7.838011e-06,0.00058594346,9.852648e-05,0.9966284,1.3887882e-05
0.6398382,2.9802322e-08,5.2273273e-05,6.377697e-05,1.1622906e-06,6.6161156e-06,0.0019842088,4.23193e-06,0.8342407,2.065301e-05
0.00022000074,5.9604645e-08,3.7550926e-06,4.118681e-05,3.2782555e-07,7.748604e-07,0.0011833906,2.682209e-07,0.99828595,9.655952e-06
0.0045512617,0.7991893,0.0411267,0.0096336305,0.0007171929,0.011132866,0.09991866,0.0018009543,0.19995883,0.026272118
2.9534101e-05,0.000572294,0.01288709,0.99803424,0.0009779632,0.00022870302,0.001150012,3.8266182e-05,0.15082616,5.930662e-06
0.99859524,0.0,3.1292439e-06,1.4901161e-07,1.4901161e-07,3.886223e-05,0.0021131039,4.798174e-06,0.0002566576,1.9669533e-06
0.0079265535,2.9802322e-08,0.00015479326,0.00019687414,4.708767e-06,5.185604e-06,0.002468288,1.3411045e-06,0.99342084,1.21593475e-05
0.32849705,0.0,3.2782555e-06,8.046627e-06,4.172325e-07,2.6226044e-06,0.0016129613,3.2782555e-07,0.87566465,2.682209e-07
0.0006380975,0.4487914,0.0074723363,0.0060194135,1.6868114e-05,0.0047543943,0.059812963,0.0021264553,0.9585969,0.0036166012
0.7068031,0.00011232495,0.029311031,3.2514334e-05,0.000751853,0.0019564033,0.095485896,0.00071924925,0.00014919043,0.0039097667
0.9818151,0.0,0.00022879243,1.1920929e-07,0.00040069222,0.00023412704,0.0041323006,4.4703484e-07,0.000114649534,0.0044132173
0.9987515,0.0,6.854534e-07,0.0,5.066395e-07,4.8577785e-06,0.0009498894,8.940697e-08,3.5345554e-05,5.662441e-07
0.99150693,2.3841858e-07,0.00014552474,8.106232e-06,4.6789646e-06,0.0006507337,0.0057788193,0.00014519691,0.004195243,0.00024190545
0.99372566,8.940697e-08,3.2514334e-05,4.976988e-06,8.940697e-08,0.00012427568,0.0024090707,0.0006400347,0.00069987774,5.0842762e-05
0.0014272928,0.27303708,0.79832387,0.0020931363,0.03746733,0.0127821565,0.011321336,0.00013333559,0.00804019,0.007341951
0.018798977,2.9802322e-08,0.0010249019,0.00026237965,8.225441e-06,1.6391277e-05,0.0025801063,4.440546e-06,0.98982996,1.8239021e-05
0.003805995,0.7875564,0.12701538,0.046069205,0.0001167357,0.006421387,0.024711818,0.008375078,0.29072922,0.0071701407
0.99811214,0.0,5.9604645e-07,0.0,2.3543835e-06,2.8312206e-06,0.0009949207,0.0,9.498e-05,1.3411045e-06
0.9962615,0.0,1.9967556e-06,3.2782555e-07,2.4437904e-06,1.0341406e-05,0.0009991229,1.1920929e-07,0.0006020069,8.404255e-06
8.970499e-05,0.20229378,0.50287586,0.98703897,0.09603524,0.028964996,0.021710217,0.00036337972,0.0011110306,3.838539e-05
0.00020805001,0.95905536,0.015090764,0.00038695335,1.9073486e-06,0.001477629,0.010104984,0.00032025576,0.10069555,0.006210476
0.0040700734,2.9802322e-08,3.373623e-05,6.264448e-05,5.6922436e-06,1.3709068e-06,0.0015791059,4.172325e-07,0.9911345,7.9512596e-05
0.99890375,0.0,9.23872e-07,0.0,4.172325e-07,5.453825e-06,0.0011627674,2.9802322e-08,2.0325184e-05,1.9073486e-06
0.0004836321,4.053116e-06,3.9428473e-05,0.0010266602,4.529953e-06,1.3560057e-05,0.007975161,2.682209e-06,0.99527436,2.9444695e-05
0.00012880564,3.874302e-07,0.0015669465,0.00047457218,0.8691553,6.2286854e-05,0.024674028,0.0,0.98745316,8.779764e-05
0.99737966,0.0,4.4852495e-05,5.364418e-07,2.0861626e-07,0.00020310283,0.001247257,8.2194805e-05,4.6014786e-05,1.4424324e-05
3.2246113e-05,0.0002990663,0.012475431,0.0014711916,0.011737108,0.9926882,0.06910738,6.2435865e-05,0.9299397,0.0009174645
9.268522e-05,0.29629722,0.42592928,0.055688053,0.07325491,0.99185884,0.017968506,0.00023978949,0.7445412,0.0002706349
0.04178688,1.0430813e-05,0.0003656149,0.9790635,0.012439847,4.7773123e-05,0.0027258098,2.9087067e-05,0.00063586235,0.00012624264
0.9973668,0.0,3.0398369e-05,1.4305115e-06,8.940697e-08,0.00016504526,0.0011986196,0.0001949668,5.7816505e-05,7.95722e-06
0.9371691,1.7881393e-06,0.0006175935,2.0951033e-05,2.9802322e-08,0.00011134148,0.000982821,0.16120014,0.00054717064,0.0031073093
0.008978993,0.00028917193,0.9840331,0.00029751658,0.017482936,0.0002631247,0.0007354915,0.00017493963,0.033762753,0.0020071268
0.981218,2.3841858e-07,0.00014099479,1.6987324e-05,2.9802322e-08,0.00012153387,0.0010362267,0.030992627,0.00046768785,0.0010784864
0.9985869,0.0,2.95043e-06,1.4901161e-07,6.854534e-07,2.3335218e-05,0.0008928776,6.854534e-07,2.977252e-05,3.4570694e-06
2.1338463e-05,0.40030468,0.010209233,0.990484,0.0033627748,0.007089436,0.36918285,0.00042569637,0.7430843,6.788969e-05
0.99852085,0.0,1.0877848e-05,5.9604645e-08,4.7683716e-07,8.919835e-05,0.0010323226,4.172325e-06,4.5001507e-06,1.8805265e-05
0.38474688,5.9604645e-08,0.00021401048,8.895993e-05,4.7683716e-07,1.0967255e-05,0.0020142794,6.982684e-05,0.92324084,5.605817e-05
0.00709635,0.0030088425,2.592802e-05,6.172061e-05,0.00029802322,0.001714468,0.92177075,1.3113022e-06,0.011442274,0.012614489
0.00015518069,6.5267086e-06,6.4730644e-05,0.99961287,7.939339e-05,1.9907951e-05,0.003487587,4.0739775e-05,1.7374754e-05,6.2584877e-07
0.9982699,0.0,3.5762787e-07,0.0,1.1622906e-06,1.3709068e-06,0.0009973049,5.9604645e-08,4.6759844e-05,1.4305115e-06
0.99907184,0.0,4.4703484e-07,0.0,6.2584877e-07,3.4570694e-06,0.00084885955,2.9802322e-08,1.0818243e-05,4.7683716e-07
1.9282103e-05,3.927946e-05,0.019639522,0.0021984577,0.0019447803,0.9990396,0.030250251,0.0006735027,0.002203256,7.164478e-05
0.003276348,3.924966e-05,7.70092e-05,0.0068487525,2.3841858e-07,0.0003209412,0.016707063,0.0024234056,0.97990036,0.00012347102
0.00027924776,6.1929226e-05,9.030104e-06,0.001683861,2.9802322e-07,0.00010037422,0.025426656,1.1175871e-05,0.9945095,2.1457672e-05
0.002367258,5.9604645e-08,2.5331974e-05,0.00011667609,9.23872e-07,5.066395e-06,0.005164981,4.4703484e-07,0.99649394,6.645918e-06
0.00019428134,0.13758841,0.91419995,0.0036682189,0.014410019,0.0048214495,0.004382372,5.057454e-05,0.038264513,0.0029209554
0.9979477,0.0,1.3738871e-05,4.172325e-07,2.3841858e-07,0.00013336539,0.00150159,2.360344e-05,3.4838915e-05,9.268522e-06
0.00024268031,0.0,0.0,0.0,7.748604e-07,0.0,0.0,0.0,0.0005886555,0.99877536
0.016371608,0.0,0.013076633,0.00018846989,0.99845755,1.8507242e-05,0.0015842915,0.0,5.814433e-05,5.620718e-05
0.9982203,0.0,1.5109777e-05,1.4901161e-07,3.874302e-07,4.786253e-05,0.0013032258,2.7418137e-06,7.253885e-05,1.8179417e-05
0.91035867,6.854534e-07,0.001755774,7.301569e-06,0.00095644593,9.447336e-05,0.004273951,3.361702e-05,0.0073733926,0.06953493
0.99832714,0.0,3.0100346e-06,1.7881393e-07,4.4703484e-07,2.8431416e-05,0.0014941096,1.1622906e-06,0.00033777952,3.2484531e-06
0.00030070543,0.0,1.4901161e-07,0.0,1.7285347e-06,0.0,2.9802322e-08,0.0,0.0002643466,0.9988618
0.02722171,2.6524067e-06,0.0007160902,0.00035309792,3.0994415e-06,4.7773123e-05,0.007999599,0.000367105,0.96618193,0.0007491112
0.98399913,0.0,7.647276e-05,7.1525574e-06,1.0222197e-05,0.00017914176,0.0031920075,7.867813e-06,0.005917549,0.0003733635
0.9989228,0.0,7.4505806e-07,0.0,3.2186508e-06,5.2154064e-06,0.00063565373,0.0,2.0205975e-05,1.5497208e-06
7.18236e-05,2.7269125e-05,3.1292439e-06,3.5613775e-05,8.374453e-06,0.023387909,0.979874,9.268522e-06,0.0001424551,0.0033334792
8.305907e-05,1.719594e-05,0.02717641,8.901954e-05,0.0018347502,0.99771094,0.02061212,0.0003581047,0.009307444,0.00033935905
0.23649251,5.9604645e-08,4.2557716e-05,0.8289746,2.0861626e-05,8.717179e-05,0.00021323562,0.007608205,6.556511e-06,0.012023032
0.9981205,0.0,1.5765429e-05,8.940697e-08,2.2649765e-06,0.00012874603,0.0011124015,1.5199184e-06,1.2785196e-05,1.8686056e-05
0.0002719164,1.2755394e-05,0.00038391352,0.9993582,0.00034314394,2.4527311e-05,0.0019254088,1.2427568e-05,0.00014409423,1.013279e-06
3.758073e-05,0.1038599,0.08670822,0.99817526,0.0007543862,0.0035182238,0.010464221,0.00022917986,0.09969953,5.453825e-06
0.99680686,0.0,3.84748e-05,1.013279e-06,1.1920929e-07,0.00014254451,0.0009045303,0.00014051795,3.8802624e-05,2.7894974e-05
0.000153929,9.4383955e-05,0.03651604,0.0137037635,0.36040226,0.9905226,0.038320214,3.015995e-05,0.00021538138,8.490682e-05
5.6803226e-05,9.298325e-06,0.0009046793,0.9994246,7.033348e-05,1.8954277e-05,0.0009302497,3.325939e-05,7.2717667e-06,4.7683716e-07
8.6307526e-05,0.0,9.727478e-05,9.068847e-05,5.364418e-07,3.695488e-06,0.00069218874,5.9604645e-08,0.9991816,2.3841858e-07
0.0007213652,3.761053e-05,0.0018506646,0.98824286,0.11523628,0.0004413724,0.0016333163,0.00014346838,0.43799213,0.0014879704
0.020550817,5.2839518e-05,0.0058632195,1.5497208e-06,3.951788e-05,9.536743e-06,0.00062164664,4.5120716e-05,0.033429563,0.94156826
2.2798777e-05,4.413724e-05,0.0002078712,0.9998996,2.965331e-05,2.4408102e-05,0.0025157332,5.760789e-05,4.7177076e-05,6.854534e-07
0.015260488,0.00047186017,3.6418438e-05,0.0008429885,1.7285347e-06,0.0010172427,0.31624073,9.045005e-05,0.8953942,0.00032541156
0.99791604,0.0,9.685755e-06,2.3841858e-07,1.1920929e-07,3.7640333e-05,0.0008646846,1.1831522e-05,2.2232533e-05,5.841255e-06
0.9989214,0.0,5.364418e-07,0.0,4.172325e-07,2.2649765e-06,0.000818491,0.0,1.1116266e-05,3.5762787e-07
0.9714404,3.695488e-06,0.00064626336,0.00046476722,8.940697e-08,0.0025074482,0.0035938323,0.2891906,0.0034883618,0.00035655499
0.78052175,1.5854836e-05,0.00020557642,4.979968e-05,4.044175e-05,0.005190611,0.4712494,0.0006954372,2.5063753e-05,0.00018057227
3.5852194e-05,1.7881393e-06,2.0861626e-05,0.9990855,0.005835831,1.4901161e-06,0.0005056858,2.9802322e-08,0.73575675,2.592802e-06
0.00051534176,0.00021314621,0.03247139,0.00024703145,0.006629169,0.97490096,0.111811966,0.0006771982,0.2843212,0.025982887
0.03929034,5.364418e-07,0.0005765557,0.0001707077,0.00012683868,1.8715858e-05,0.003165096,1.7613173e-05,0.9426482,0.0047717094
0.00039070845,0.18438166,0.33599663,0.09619105,0.0025023222,0.00624609,0.028621078,0.00059497356,0.96784794,0.0012125373
0.9755373,3.2782555e-07,0.00018781424,1.0222197e-05,0.0,8.907914e-05,0.00057289004,0.14456707,8.288026e-05,0.00027996302
0.0051195323,3.5762787e-07,0.00063979626,0.0009494722,0.000100404024,3.0964613e-05,0.003809929,4.4107437e-06,0.9893981,0.00013199449
0.9965765,0.0,7.82907e-05,3.4570694e-06,3.5762787e-07,0.00037568808,0.0009274483,0.00011438131,4.017353e-05,1.5169382e-05
0.99703884,0.0,5.2452087e-06,4.4703484e-07,4.7683716e-07,2.798438e-05,0.0018734336,2.2649765e-06,0.00051796436,6.467104e-06
0.005727321,0.00022029877,0.9958291,0.0005455017,0.010819674,0.00015479326,0.0005196929,0.0011060536,0.026354969,0.0041561127
0.99846137,0.0,8.195639e-06,1.4901161e-07,5.662441e-07,6.735325e-05,0.001645416,3.7550926e-06,5.6236982e-05,6.943941e-06
0.00029802322,8.332729e-05,2.5779009e-05,0.00036674738,2.9802322e-08,4.646182e-05,0.007754475,0.00017431378,0.9943375,0.00010058284
0.21937698,8.940697e-08,3.6478043e-05,3.0636787e-05,1.0728836e-06,1.9967556e-06,0.0031867623,1.9967556e-06,0.96751094,2.771616e-05
0.9974038,0.0,7.778406e-06,2.0861626e-07,3.734231e-05,6.225705e-05,0.0010176599,8.940697e-08,1.1622906e-05,6.467104e-06
0.007373363,0.0,5.7548285e-05,0.00012239814,1.2397766e-05,1.5199184e-06,0.0012381673,3.2782555e-07,0.989662,5.1021576e-05
0.14446184,0.0,5.3733587e-05,2.4855137e-05,3.3289194e-05,1.5199184e-06,0.0017617047,1.4901161e-07,0.9513129,2.4050474e-05
0.0021566153,4.0322542e-05,0.9857944,0.00089392066,0.21360976,0.00021982193,0.0014763474,0.00010192394,0.00698632,0.0030899346
3.6895275e-05,0.0,3.7908554e-05,1.0728836e-06,0.094237715,1.3411045e-05,0.029058248,0.0,0.9935363,1.8715858e-05
0.03380704,3.3676624e-06,0.0353083,0.00018790364,0.92653745,0.00013309717,0.008357704,1.7881393e-07,0.005262524,0.02335152
0.7722222,0.0,2.4527311e-05,3.105402e-05,6.3478947e-06,3.7550926e-06,0.0011885762,2.682209e-07,0.5578511,2.5302172e-05
0.00020191073,2.9802322e-08,1.2308359e-05,6.7055225e-05,3.874302e-07,9.834766e-07,0.00084003806,1.1920929e-07,0.9985951,1.2218952e-06
0.99844575,0.0,3.1888485e-06,0.0,1.5795231e-06,1.6897917e-05,0.00074723363,2.3841858e-07,1.21593475e-05,3.0994415e-06
0.0040272176,2.9802322e-07,0.00031146407,0.0008967221,3.46303e-05,1.9073486e-05,0.00502038,6.2584877e-07,0.9927283,1.4126301e-05
3.2305717e-05,7.164478e-05,0.07540244,0.0017003119,0.0010476708,0.9993651,0.011275768,0.0012816489,0.46252498,4.8279762e-05
0.017098188,8.940697e-08,0.00014817715,0.00010332465,8.940697e-08,1.3142824e-05,0.0030842423,1.5079975e-05,0.9918195,5.751848e-06
0.9900643,0.0,4.082918e-06,5.364418e-07,2.682209e-07,7.987022e-06,0.0025640428,1.1622906e-06,0.009649783,1.3738871e-05
0.99800277,0.0,1.4007092e-06,5.9604645e-08,3.0696392e-06,6.9737434e-06,0.00057792664,8.940697e-08,6.0737133e-05,4.142523e-06
0.0008752942,0.0,4.068017e-05,0.00011008978,4.1127205e-06,2.8312206e-06,0.0023209155,2.9802322e-08,0.9967768,4.4703484e-06
0.0005888045,2.2292137e-05,0.9976553,0.0001475513,0.062406242,8.055568e-05,9.945035e-05,1.513958e-05,0.001525253,0.00036743283
0.99871147,0.0,7.748604e-07,0.0,3.2782555e-06,6.8843365e-06,0.000802964,0.0,2.4706125e-05,2.2053719e-06
0.9986556,0.0,3.0398369e-06,5.9604645e-08,1.7881393e-07,3.5643578e-05,0.0014104247,1.3411045e-06,0.00014451146,9.655952e-06
0.99787587,0.0,2.7865171e-05,2.3841858e-07,5.9604645e-08,8.428097e-05,0.0010464191,0.00010681152,2.6464462e-05,9.894371e-06
4.8726797e-05,0.28147095,0.4540884,0.04425493,0.064091146,0.79754907,0.016267091,4.8309565e-05,0.90207875,0.00022497773
0.99639064,0.0,2.3573637e-05,6.1690807e-06,4.7683716e-07,0.0002462268,0.0014314055,2.527237e-05,0.00038141012,1.3291836e-05
2.5957823e-05,0.92813253,0.00041404366,0.0036051273,7.1525574e-07,0.00079119205,0.06853673,2.3812056e-05,0.9764733,0.00039947033
0.00020435452,0.8744158,0.14044267,0.005419433,0.013686687,0.082607955,0.047529906,0.00015434623,0.08872989,0.01311937
0.8042793,0.0,3.644824e-05,6.0647726e-05,1.5497208e-06,1.463294e-05,0.0023789406,5.930662e-06,0.6271937,2.1368265e-05
5.733967e-05,7.748604e-07,0.00087195635,0.9969133,0.9790165,5.5402517e-05,0.004125297,0.0,0.00020772219,1.8179417e-06
0.9919811,2.9802322e-08,4.029274e-05,2.6524067e-06,2.0861626e-07,0.00021654367,0.003757298,6.0737133e-05,0.0068154633,1.0460615e-05
0.0018265843,3.5762787e-07,2.360344e-05,1.3619661e-05,2.0861626e-07,4.5895576e-06,0.006936699,5.662441e-07,0.9947443,2.092123e-05
0.05854082,9.0420246e-05,1.0311604e-05,4.798174e-06,8.046627e-06,0.0015402138,0.86600226,1.5050173e-05,0.0014201105,0.001757741
2.7924776e-05,2.3186207e-05,7.754564e-05,0.9998799,0.00012505054,1.7851591e-05,0.0036056638,1.7732382e-05,0.00029954314,1.013279e-06
2.348423e-05,0.0004015267,4.172325e-07,3.3169985e-05,4.7683716e-07,0.0009404421,0.98515433,5.00679e-06,0.00025722384,0.0044199824
0.99371016,2.9802322e-08,3.117323e-05,5.2154064e-06,2.3841858e-07,0.00016450882,0.0021136403,0.00018435717,0.0077364445,8.97944e-05
0.9983076,0.0,2.9534101e-05,2.3841858e-07,0.0,0.00016531348,0.0010504723,0.00025057793,7.6293945e-06,3.5762787e-06
0.0004300773,1.7881393e-07,0.001453042,1.3709068e-06,7.8737736e-05,0.8923218,0.1385588,0.00028836727,2.592802e-06,0.002073884
0.00014585257,4.172325e-07,2.8371811e-05,0.00013646483,1.4901161e-07,1.9073486e-06,0.0009882152,1.1622906e-06,0.9982696,3.0696392e-06
0.0024964213,0.012711346,0.33071265,0.44816083,0.0034262836,0.0028160214,0.010733366,0.00010842085,0.96282476,8.225441e-05
0.7945623,5.364418e-07,0.0005081892,0.000233531,4.6640635e-05,4.3421984e-05,0.0019191802,0.00010153651,0.55120915,0.018758029
5.376339e-05,0.8394629,0.0006351769,0.012898594,7.4505806e-06,0.0025272667,0.14267686,4.0471554e-05,0.9725225,0.0009056628
0.99317735,0.0,0.00058990717,6.3180923e-06,2.3245811e-06,0.0019831955,0.0012378395,0.0023990571,2.732873e-05,0.00033682585
0.9959024,0.0,5.4746866e-05,6.2286854e-06,8.940697e-08,0.00025466084,0.0008614063,0.00037136674,5.3167343e-05,1.5884638e-05
5.3703785e-05,1.4215708e-05,0.0001924038,0.99982095,0.00027489662,1.8924475e-05,0.00143224,2.1904707e-05,0.00022175908,1.937151e-06
0.99889266,0.0,1.3113022e-06,0.0,2.0861626e-07,5.453825e-06,0.00077691674,1.7881393e-07,6.0796738e-06,7.748604e-07
0.1034545,6.824732e-06,0.007723242,0.00022384524,0.00025463104,5.0127506e-05,0.010262698,2.8312206e-05,0.89663017,0.00385952
0.026312202,7.301569e-06,4.6998262e-05,0.00020846725,0.0,1.6570091e-05,0.00021705031,0.95715904,0.0028969646,0.0060602427
6.997585e-05,0.0,3.120303e-05,7.790327e-05,1.2218952e-06,1.6093254e-06,0.00047314167,2.9802322e-08,0.9990698,7.1525574e-07
0.00012382865,1.5497208e-06,3.477931e-05,0.9996597,0.0020259023,6.1392784e-06,0.002159685,2.2649765e-06,0.00014668703,1.6987324e-06
0.0002309084,0.13193691,0.10879496,0.011428624,0.80919874,0.03633547,0.13353693,6.854534e-07,0.002875626,0.0021331012
0.0011565685,0.0,9.536743e-07,0.0,3.993511e-06,0.0,1.1920929e-07,0.0,0.0007160008,0.99796915
0.00019344687,8.076429e-06,0.00010469556,0.99931616,0.0016050935,1.9878149e-05,0.0028726757,1.3738871e-05,0.00046607852,7.688999e-06
0.00022515655,6.8843365e-06,9.793043e-05,0.99961245,0.00019681454,1.7911196e-05,0.0023683012,1.2457371e-05,4.9591064e-05,6.2584877e-07
0.0018627644,0.0,7.7962875e-05,0.00026392937,4.4107437e-06,2.95043e-06,0.0012444854,5.9604645e-07,0.99712634,3.1292439e-06
0.95677185,0.0,1.3113022e-05,6.28829e-06,7.1525574e-06,8.34465e-06,0.0015825331,9.23872e-07,0.05763203,7.009506e-05
0.9979473,0.0,1.579523e-05,4.172325e-07,8.940697e-08,5.558133e-05,0.00069859624,6.4998865e-05,1.9997358e-05,7.688999e-06
0.0010176301,0.0276092,0.00019097328,0.03999895,1.4811754e-05,0.005718857,0.73359525,0.0841029,0.00071415305,0.018919855
0.18909118,3.5762787e-07,0.00032106042,0.0016706884,8.866191e-05,1.4066696e-05,0.0030674934,1.4603138e-06,0.9598685,3.054738e-05
0.9980742,0.0,7.2717667e-06,8.940697e-08,1.1622906e-06,2.7805567e-05,0.00057706237,1.1026859e-06,1.6480684e-05,1.2695789e-05
0.9969121,0.0,4.3839216e-05,3.874302e-07,7.635355e-05,0.00022560358,0.0008096993,9.23872e-07,1.3023615e-05,2.9712915e-05
0.0006060004,1.513958e-05,9.429455e-05,1.6123056e-05,0.0,3.5852194e-05,0.00044447184,0.9840548,0.004564315,0.03431797
0.99729824,0.0,4.515052e-05,1.4901161e-07,8.34465e-07,0.00025466084,0.0019320846,1.0877848e-05,3.015995e-05,4.7773123e-05
0.0057855546,1.1920929e-07,2.7418137e-06,1.4007092e-06,0.0,1.1026859e-06,7.998943e-05,0.98815495,2.5838614e-05,0.00017911196
0.00010347366,0.00034445524,0.98319185,0.008441687,0.0028134286,0.0005951822,0.00060486794,4.258752e-05,0.9722769,5.888939e-05
0.0012684166,6.3061714e-05,0.9956461,0.00035116076,0.07378748,0.00016778708,0.0002720356,4.544854e-05,0.02707997,0.0007866621
0.99712217,0.0,3.1381845e-05,8.940697e-08,1.1920929e-05,7.5280666e-05,0.00072577596,8.34465e-07,3.963709e-06,1.1205673e-05
6.2286854e-06,4.172325e-07,0.0080880225,1.5497208e-05,1.4841557e-05,0.99975294,0.0089311,0.00011998415,0.008398175,7.8082085e-06
0.9857863,8.940697e-08,0.0009340942,8.940697e-07,5.9604645e-07,0.000114291906,0.00048705935,0.0027009249,4.9978495e-05,0.0032060146
0.99451154,1.7881393e-07,0.00012496114,3.027916e-05,1.1920929e-07,0.00062671304,0.0013975799,0.0026807785,0.00097361207,5.030632e-05
0.0037133098,0.024566054,0.9337841,0.012829632,0.052393883,0.0038746893,0.0072921515,0.00052300096,0.022946984,0.007732928
0.008535802,0.00033828616,0.98924696,0.006569952,0.0017582774,0.0023848414,0.0010780394,0.045483023,8.98242e-05,0.0016406476
4.798174e-06,0.37896878,0.0018472075,0.9986608,0.013558447,0.034149915,0.7229581,0.0011723936,0.013825953,0.00044837594
4.7296286e-05,2.9116869e-05,0.0020049214,0.9974266,0.066411465,6.9111586e-05,0.002055943,4.5895576e-06,0.5101479,5.3614378e-05
2.989173e-05,0.95515645,0.0012971759,0.062490404,1.1920929e-07,0.000570029,0.025644869,0.0007920861,0.9615789,0.0005096495
4.7922134e-05,0.011255175,0.79284275,0.96505225,0.2321766,0.010383964,0.0015370548,3.9458275e-05,0.0052782297,1.1146069e-05
0.9980544,0.0,1.2218952e-05,1.4901161e-07,7.4505806e-07,9.9271536e-05,0.0013425052,4.261732e-06,1.9013882e-05,9.208918e-06
0.018113017,0.0,0.00030377507,1.7613173e-05,0.9988533,6.0498714e-06,0.0023745894,0.0,0.032206744,0.00011733174
1.3023615e-05,0.9199886,0.00077715516,0.0034577549,2.2947788e-06,0.000867486,0.058988154,5.7816505e-06,0.98020023,0.00022694468
0.0010408759,7.4505806e-07,2.9116869e-05,7.915497e-05,3.5762787e-07,6.1690807e-06,0.0048862994,9.23872e-07,0.99589497,1.680851e-05
0.98966813,1.1920929e-07,0.0005494952,9.945035e-05,3.5762787e-07,0.0018219054,0.0005789399,0.004625529,2.8550625e-05,7.095933e-05
0.99877787,0.0,2.115965e-06,0.0,1.1026859e-06,2.2172928e-05,0.0007980168,1.7881393e-07,1.052022e-05,1.3411045e-06
0.00011482835,0.002655387,0.0011874437,0.9845911,0.00012025237,7.5906515e-05,0.004488915,3.5315752e-05,0.9408083,1.8835068e-05
0.91474426,8.940697e-08,0.00027117133,2.2053719e-06,2.682209e-06,1.9878149e-05,0.0037533045,4.082918e-06,0.30545437,8.612871e-05
0.0023569763,8.314848e-06,0.9946992,0.0003183782,0.035068452,0.00032308698,0.00023138523,3.2156706e-05,8.7440014e-05,0.00011751056
0.00034087896,0.00076180696,0.99686944,0.0015314519,0.036541075,0.00044047832,0.00031769276,6.133318e-05,0.017255008,0.00044447184
0.99525505,0.0,3.2365322e-05,1.0877848e-05,1.9669533e-06,0.0002850592,0.0011740029,1.1980534e-05,0.00041922927,2.6464462e-05
0.0011037588,0.0,0.00017148256,5.2392483e-05,3.6358833e-06,2.771616e-06,0.001032263,7.4505806e-07,0.9972161,9.447336e-06
0.2418625,0.00011178851,0.6855692,0.00021758676,0.0007135868,0.0012232959,0.00338763,0.00075763464,0.0002861023,0.00039061904
0.001285255,0.38703364,0.51333153,0.0066367686,0.038068473,0.017782718,0.028558254,0.00017631054,0.151265,0.010651022
0.99890804,0.0,1.2218952e-06,0.0,2.682209e-07,5.4836273e-06,0.0008299351,5.9604645e-08,1.8239021e-05,1.9967556e-06
0.9986149,0.0,4.440546e-06,8.940697e-08,2.771616e-06,3.8534403e-05,0.0018720031,3.5762787e-07,5.736947e-05,2.9206276e-06
0.02680087,4.9829483e-05,0.6479042,0.005680412,0.022622019,0.0019977689,0.016563982,0.0001975596,0.8570225,0.0019102097
7.31349e-05,3.5762787e-06,4.1514635e-05,0.99873877,0.001871705,2.2053719e-06,0.0008331537,4.172325e-07,0.07224679,6.3180923e-06
0.9514534,0.0,3.3676624e-06,1.1622906e-06,3.874302e-07,1.5497208e-06,0.0010353625,1.7881393e-07,0.09684867,5.2452087e-06
0.2457318,8.34465e-07,4.3958426e-05,0.00046801567,1.1920929e-07,4.6014786e-05,0.007187307,0.0010061562,0.9403434,6.696582e-05
0.0001988411,0.92815465,0.024728358,0.007116139,0.00017163157,0.016365767,0.043219566,0.00033545494,0.3831258,0.011458993
3.6150217e-05,1.6659498e-05,0.000120311975,0.999884,0.000238657,2.2351742e-05,0.003055185,9.775162e-06,0.00012665987,5.9604645e-07
0.99821335,0.0,1.5199184e-05,1.1920929e-07,2.682209e-07,8.356571e-05,0.0011371374,1.4454126e-05,1.9341707e-05,9.983778e-06
0.9982705,0.0,1.937151e-06,0.0,2.0861626e-07,8.940697e-06,0.0015175939,5.662441e-07,3.299117e-05,1.8179417e-06
0.99768364,0.0,1.937151e-06,0.0,2.503395e-06,1.8179417e-05,0.0020860434,2.3841858e-07,3.993511e-06,9.23872e-07
0.895192,1.1026859e-06,0.0005208552,5.2392483e-05,6.470084e-05,7.7456236e-05,0.0035269558,0.00025060773,0.044567436,0.041533947
2.4348497e-05,0.9489824,0.002170086,0.0037481189,1.013279e-06,0.001231283,0.027320892,7.417798e-05,0.9668895,0.0007622838
4.157424e-05,2.8967857e-05,0.02762726,0.0002015531,0.00036469102,0.9992738,0.025213689,0.0009368956,0.16297328,0.00023561716
0.99862826,0.0,8.34465e-07,2.9802322e-08,6.2584877e-07,7.867813e-06,0.0012402534,1.4901161e-07,5.477667e-05,8.046627e-07
0.00038433075,0.560985,0.29616937,0.004306972,0.03832233,0.06393775,0.04248187,0.0006625056,0.01998514,0.08328509
0.3126486,5.930662e-06,0.023222238,1.5795231e-06,5.403161e-05,3.1888485e-06,0.00054070354,0.00067538023,0.0015650094,0.5457811
0.00028929114,2.9802322e-07,0.03880039,0.0014472008,0.9925928,3.027916e-05,0.006301731,0.0,0.9858637,3.787875e-05
5.0902367e-05,2.682209e-07,0.0031356812,1.347065e-05,9.179115e-06,0.9962433,0.03146568,0.0003014207,0.0013159811,6.8724155e-05
0.9874474,2.9802322e-08,5.915761e-05,7.301569e-06,0.00013372302,7.0273876e-05,0.0018123388,1.2516975e-06,0.0009893477,0.0001925826
0.97205,5.9604645e-08,0.0013598204,9.23872e-07,0.00012138486,0.00027632713,0.003341645,4.9114227e-05,0.00040572882,0.02596429
0.00019204617,0.89235485,0.14761272,0.008635521,0.017571092,0.036334366,0.08630329,5.4627657e-05,0.03511727,0.0076780617
0.9982143,0.0,2.0861626e-06,5.9604645e-08,5.9604645e-07,3.4064054e-05,0.0025657713,7.4505806e-07,1.3530254e-05,4.172325e-07
0.051575392,2.9802322e-08,0.00039955974,0.00027543306,1.21593475e-05,7.301569e-06,0.0024416447,1.1622906e-06,0.9859597,7.95722e-06
1.3798475e-05,0.00049585104,1.0043383e-05,0.000113636255,0.00014963746,0.00711751,0.89044875,8.940697e-07,0.71415097,0.005849421
0.99856794,0.0,7.748604e-07,0.0,5.066395e-07,2.3841858e-06,0.0005623698,8.940697e-08,1.4573336e-05,1.4901161e-06
0.00066664815,2.4437904e-06,0.014153451,5.8978796e-05,0.00011706352,0.9987285,0.015135467,0.001155138,0.0089249015,7.9512596e-05
0.50001013,2.0384789e-05,0.57707274,0.00012847781,4.9740076e-05,0.0016954541,0.0005803108,0.007846564,0.0003706813,0.0012242198
0.00077724457,2.938509e-05,0.0006814599,0.9978149,0.0011376739,4.3451786e-05,0.0009215176,4.440546e-06,0.0007432401,4.4703484e-07
0.419376,3.5762787e-07,0.008171648,7.033348e-06,8.6426735e-06,7.688999e-06,0.00028508902,0.0019001067,0.0024879277,0.37640408
0.80696994,0.0,3.7252903e-06,1.1265278e-05,5.066395e-06,1.4901161e-06,0.0019564033,1.1920929e-07,0.56807894,6.2286854e-06
0.0028667748,4.1007996e-05,4.23193e-06,5.811453e-06,2.8461218e-05,0.000880301,0.96464896,1.0192394e-05,8.133054e-05,0.011330366
0.001791805,0.0,4.5359135e-05,0.0001616478,1.7881393e-06,3.33786e-06,0.0019101799,1.7881393e-07,0.99743134,7.1525574e-07
0.0013905764,0.688588,0.11188394,0.0006775558,0.00066551566,0.0039942265,0.023792475,0.0009598136,0.023188591,0.1448884
0.9982409,0.0,1.6570091e-05,8.34465e-07,4.7683716e-07,0.00026685,0.0021716356,1.5050173e-05,7.131696e-05,3.9339066e-06
0.32725877,0.00029060245,0.00095024705,0.0017925799,2.5987625e-05,0.00023114681,0.037175834,0.00022724271,0.9198756,0.0016304553
0.99605715,0.0,2.5451183e-05,2.1755695e-06,4.7683716e-07,0.00017634034,0.0015707314,9.328127e-05,0.000682354,0.00024479628
0.8526261,1.013279e-06,0.24146679,1.7464161e-05,0.00027498603,0.0030486584,0.0025790632,0.0002709031,4.2676926e-05,0.00020083785
0.9912282,0.0,7.519126e-05,1.1891127e-05,0.0015065968,0.00035235286,0.0014623404,6.556511e-07,0.00011536479,0.00014808774
0.99769497,0.0,5.3673983e-05,6.2584877e-07,5.662441e-07,0.00030264258,0.0007095635,5.4746866e-05,8.6426735e-06,1.5616417e-05
0.11144745,0.0037175715,0.00034311414,0.0011362731,0.012139946,0.0048062205,0.89694107,0.00013512373,0.00019174814,0.014844954
0.1817599,3.4332275e-05,0.86062753,0.000102609396,0.00041496754,0.0004478097,0.0006670654,0.0015685558,0.0005572438,0.0020507276
0.9945466,8.940697e-08,6.4224005e-05,3.5762787e-07,0.0,5.4121017e-05,0.00073203444,0.010552049,1.0043383e-05,3.6746264e-05
3.1918287e-05,8.833408e-05,0.044378906,0.00083467364,0.0014513433,0.99934065,0.013749421,0.00048434734,0.8287634,0.0001591742
1.579523e-05,8.672476e-06,0.0017529428,0.99975395,0.0036506057,4.9978495e-05,0.0026297271,8.404255e-06,7.003546e-05,1.2218952e-06
0.005565524,0.0,2.9951334e-05,0.00010177493,1.4156103e-05,1.9073486e-06,0.0017850995,0.0,0.99294,1.2755394e-05
0.9988141,0.0,1.7285347e-06,0.0,9.23872e-07,1.2367964e-05,0.0010327995,5.9604645e-08,3.4332275e-05,5.7816505e-06
0.003529936,0.00023469329,0.9654962,0.004865885,0.26648515,0.0007763803,0.0021249056,4.684925e-05,0.00022181869,0.0008710027
1.1831522e-05,0.336299,0.7704004,0.98657227,0.10461417,0.0712637,0.028293818,0.00055527687,0.0060225725,2.7805567e-05
0.998101,0.0,3.0398369e-06,8.940697e-08,5.662441e-07,1.2785196e-05,0.0009454787,6.2584877e-07,0.000105679035,1.4454126e-05
0.0007430613,8.940697e-07,0.0037193298,0.00043168664,1.1920929e-07,5.5849552e-05,0.00025600195,0.00060403347,0.99770474,9.208918e-06
5.3793192e-05,0.00024226308,7.1525574e-07,7.215142e-05,3.1888485e-06,0.0016846061,0.9924735,1.3977289e-05,0.00018569827,0.003945142
0.002788663,0.0041667223,0.97221184,0.008411288,0.1220355,0.001645714,0.0040510595,0.00020608306,0.086814255,0.0034646094
0.010528415,0.0,3.8594007e-05,0.00011378527,1.4901161e-07,2.592802e-06,0.0014362633,2.503395e-06,0.99369323,8.34465e-07
0.00017854571,0.6843104,0.005291134,0.013206422,0.02305162,0.13908973,0.61522627,0.00013580918,0.06240475,0.054017276
0.0065273046,1.5199184e-06,0.00020805001,0.9968599,0.16576147,0.00030890107,0.0020751655,0.00030252337,2.9295683e-05,0.009092063
9.119511e-06,0.71920526,0.10136026,0.99355215,0.019670784,0.07536012,0.21160114,0.00097084045,0.014737785,0.000104278326
0.850937,4.2915344e-06,9.8347664e-05,0.000967741,5.9604645e-08,0.00020337105,0.0056094825,0.0027316809,0.5653247,6.0796738e-05
0.0002027154,9.834766e-07,0.006623149,4.553795e-05,3.1232834e-05,0.9993371,0.024199426,0.0006733835,0.0049800873,3.1471252e-05
0.9968604,0.0,1.3440847e-05,2.2053719e-06,6.2584877e-07,9.596348e-05,0.0013689995,7.599592e-06,0.0003105998,1.4662743e-05
0.00020420551,0.57315373,0.6057281,0.09400329,0.08939588,0.87008685,0.03490928,0.0040038526,0.053786337,0.004841715
0.01610601,0.0,2.7954578e-05,0.00013580918,1.1920929e-07,5.2452087e-06,0.002379924,3.963709e-06,0.9907695,4.827976e-06
0.00011202693,1.4781952e-05,0.0015286803,0.999183,0.03547129,0.00012284517,0.0069206655,1.3828278e-05,2.6375055e-05,9.715557e-06
0.00042960048,0.0,3.7670135e-05,0.0001539886,8.821487e-06,2.3841858e-06,0.0018806458,0.0,0.99795645,1.2814999e-06
0.99356437,0.0,7.754564e-05,1.2040138e-05,3.1083822e-05,0.00034800172,0.0010212958,1.49309635e-05,0.00025483966,0.0002220571
0.00012722611,8.34465e-07,2.810359e-05,0.99953294,0.002066046,4.3809414e-06,0.0012563169,5.9604645e-07,0.00035825372,1.2516975e-06
0.99791217,0.0,5.6922436e-06,2.682209e-07,4.7683716e-07,5.4508448e-05,0.0014159083,2.4437904e-06,0.00018674135,1.2785196e-05
0.000118881464,0.0,8.940697e-08,0.0,0.0066450536,0.0,2.9802322e-07,0.0,0.001852423,0.9652956
1.7493963e-05,0.03286472,0.00787726,0.99983877,0.09948617,0.039114922,0.5788912,0.0005348623,0.00017422438,4.6551228e-05
1.9788742e-05,8.711219e-05,0.05884084,0.0045129657,0.0054856837,0.99972576,0.020923227,0.0006496906,0.009222835,3.322959e-05
0.9968089,0.0,5.096197e-06,8.940697e-08,2.4169683e-05,2.2828579e-05,0.0006212592,1.4901161e-07,9.298325e-06,3.6746264e-05
0.00093996525,2.9802322e-07,0.00010854006,0.023363292,0.10570955,0.009028524,0.002398789,3.963709e-06,0.0011239052,0.9041996
0.025768965,2.3841858e-07,7.581711e-05,0.0009717345,2.6226044e-05,4.7683716e-06,0.0019394755,1.2516975e-06,0.9831263,2.1785498e-05
0.00015962124,0.0,2.8908253e-05,3.6656857e-05,5.155802e-06,2.1457672e-06,0.0022240877,0.0,0.9981407,3.33786e-06
0.013629705,0.0,3.7819147e-05,0.00013104081,5.364418e-07,2.115965e-06,0.0008175671,9.059906e-06,0.98969734,1.3560057e-05
0.00015696883,0.0039168,7.301569e-06,0.00026968122,6.455183e-05,0.0033898652,0.9833791,1.5079975e-05,0.0001346767,0.005967319
0.91044044,2.5898218e-05,0.0006951988,0.00016433,5.364418e-07,0.0011632442,0.039730966,0.118712634,0.004880935,0.0033426583
0.045887113,0.013820499,0.863925,0.00042831898,3.6388636e-05,0.00031811,0.00091293454,0.02096653,0.0015047491,0.0073703527
0.00180462,0.0,2.297759e-05,0.0002155006,1.6987324e-06,3.2782555e-06,0.0021789968,5.9604645e-08,0.9974388,1.013279e-06
0.00014293194,0.9450406,0.0075609386,0.002801329,4.720688e-05,0.0053340495,0.10869244,0.0008147359,0.01042968,0.015819907
0.00016745925,0.006994784,0.06840879,0.971226,0.52053756,0.0038296282,0.01676622,1.6748905e-05,0.10847479,0.00014200807
0.0015711486,0.4809922,0.24866036,0.00019678473,0.0001283884,0.0011657178,0.0036337674,0.0028377175,0.020953566,0.31034923
0.16592076,2.682209e-07,1.4543533e-05,4.4703484e-07,0.0,3.8444996e-06,0.0001578033,0.9603689,2.3335218e-05,0.0005315542
1.1116266e-05,2.065301e-05,0.0002399385,0.9991367,0.022809297,1.335144e-05,0.0017957389,3.874302e-07,0.81360435,6.1690807e-06
0.9713907,8.940697e-08,4.133582e-05,2.2739172e-05,2.3841858e-07,6.4343214e-05,0.0032472014,7.611513e-05,0.083851874,5.352497e-05
0.99865663,0.0,1.3113022e-06,5.9604645e-08,6.854534e-07,1.3113022e-05,0.0008049607,1.7881393e-07,1.296401e-05,3.5762787e-07
0.9959352,8.940697e-08,4.6104193e-05,6.1690807e-06,2.0861626e-07,0.0006670952,0.0043308735,0.00024491549,0.0005684495,9.655952e-06
0.99551886,0.0,6.28829e-06,8.940697e-08,1.013279e-06,5.3614378e-05,0.004420638,8.34465e-07,0.00079742074,4.887581e-05
0.00014796853,0.0026621222,0.7525597,0.04461229,0.6497823,0.3597954,0.014174849,2.0831823e-05,0.9820279,0.00021359324
0.00048828125,4.4703484e-07,0.0049128532,0.00012996793,3.20673e-05,0.99911714,0.015537918,0.0020825267,0.0001873672,1.3202429e-05
0.9977876,0.0,4.917383e-06,1.7881393e-07,7.390976e-06,3.3557415e-05,0.00089260936,1.7881393e-07,4.6402216e-05,1.2665987e-05
0.99039257,1.1920929e-07,0.00039374828,7.468462e-05,1.642108e-05,0.0016178787,0.0010908246,0.00020709634,0.00023457408,0.0003157258
0.99767417,0.0,1.6361475e-05,2.0861626e-07,1.1920929e-07,7.143617e-05,0.0018163323,4.6133995e-05,2.5600195e-05,9.119511e-06
0.00024268031,0.0,0.0,0.0,7.748604e-07,0.0,0.0,0.0,0.0005886555,0.99877536
0.0013703704,0.00075027347,0.55936444,0.013232619,0.00082829595,0.0004297793,0.0063593984,0.00029870868,0.9853883,0.00030371547
0.004540652,0.00019523501,0.9914348,0.0005751252,0.15080684,0.00043267012,0.00047814846,5.7190657e-05,0.00087302923,0.0006702244
0.036819667,0.0013374984,1.591444e-05,3.2931566e-05,4.3809414e-06,0.0006786287,0.654242,1.090765e-05,0.64756763,0.0010596514
0.0013352633,1.6152859e-05,0.0077325106,0.002205044,0.554608,0.85705745,0.04769525,2.0563602e-06,0.00022393465,5.760789e-05
0.35728508,6.7561865e-05,0.058493346,0.00045752525,0.00033280253,4.258752e-05,0.0012887716,0.00490582,0.021419734,0.5553636
0.00049364567,5.662441e-07,3.2007694e-05,0.9984917,0.021656394,5.4836273e-06,0.0011583567,1.4901161e-07,0.0012120306,1.1324883e-06
0.0008010864,0.0008445084,0.65813047,0.042299867,0.38348973,0.002516687,0.019368082,8.237362e-05,0.9702123,0.0024451911
0.9991045,0.0,2.0861626e-07,0.0,2.3841858e-07,1.1622906e-06,0.0007071197,0.0,1.9609928e-05,7.4505806e-07
0.26063555,8.627772e-05,0.0005302727,0.008422166,0.0,0.000105947256,0.0020405948,0.25416315,0.5381368,0.0010868609
0.9986651,0.0,7.748604e-07,2.9802322e-08,7.748604e-07,5.453825e-06,0.00093373656,2.9802322e-08,6.7681074e-05,1.1920929e-06
0.0012714863,0.0,4.0113926e-05,0.00019454956,1.3738871e-05,1.2516975e-06,0.001003325,5.9604645e-08,0.9967233,4.082918e-06
0.0005403459,0.09476924,0.0009056926,0.0027329922,4.467368e-05,0.003627926,0.16405034,0.00011739135,0.96678185,0.001899749
0.998109,0.0,1.9073486e-06,0.0,4.5895576e-06,5.5134296e-06,0.0008840859,2.9802322e-08,1.2397766e-05,4.261732e-06
0.55132484,6.3180923e-06,0.47665155,0.00013232231,0.0018339753,0.0016375482,0.004179418,0.00056645274,0.00090289116,0.0028235316
1.1026859e-05,0.027287304,0.00965476,0.9906229,0.19797641,0.09351656,0.27406096,0.00044223666,0.05864051,0.0010642707
0.9932945,5.9604645e-08,0.00015750527,1.5288591e-05,0.0,0.0007454157,0.0014356673,0.0062898695,7.0273876e-05,3.5464764e-05
0.00048336387,0.00018954277,0.9944338,0.0042520165,0.24373174,0.00044372678,0.00061151385,4.386902e-05,0.015852481,0.00057944655
0.0013550222,0.08060321,0.00026777387,0.0019429922,0.0009249449,0.006289065,0.88880014,9.918213e-05,0.124504596,0.05471888
0.005283475,2.3066998e-05,0.0007151365,1.9073486e-06,0.00011762977,8.314848e-06,0.00031757355,9.804964e-06,0.0028193593,0.9776389
0.99807024,0.0,6.2286854e-06,1.4901161e-07,1.6391277e-06,5.0216913e-05,0.001201123,1.1622906e-06,9.0777874e-05,1.5974045e-05
0.0022335649,7.748604e-07,0.0032914877,0.000102669,7.930398e-05,0.9906388,0.05583638,0.00066265464,6.2316656e-05,3.889203e-05
5.4836273e-06,0.60562396,0.01596731,0.9986944,2.4408102e-05,0.0019251704,0.037157834,0.00046509504,0.58243906,4.4107437e-06
0.00012862682,0.00020447373,0.009961814,0.0010489523,0.006014794,0.9762099,0.18938515,0.0005543828,0.0015736818,0.0025248528
0.00066658854,0.0009765327,0.99760836,0.0073756278,0.0058283806,0.0005749166,0.00032496452,0.008861899,0.0066328347,0.002751708
0.022348434,1.8537045e-05,0.0008135736,0.0002925396,1.1026859e-06,0.00051152706,0.016877025,0.01196593,0.9283864,0.0072965324
0.0011047423,0.8472916,0.02229011,0.003368944,0.0055847466,0.032828808,0.22189173,0.00051119924,0.009431183,0.08618456
2.399087e-05,0.005144775,0.9494151,0.8250395,0.024403632,0.003841579,0.0016370714,6.201863e-05,0.89257866,2.2798777e-05
0.0041240454,3.8534403e-05,0.000177145,0.0071944892,2.9802322e-08,4.3183565e-05,0.00581488,0.013858795,0.98084116,0.00031414628
2.5957823e-05,0.0014484525,0.014515102,0.99706316,0.97782886,0.08363807,0.25725138,1.1742115e-05,0.0001013875,1.7285347e-05
0.9983989,0.0,7.3611736e-06,0.0,1.1920929e-07,1.41859055e-05,0.0011599362,2.0563602e-06,3.3020973e-05,6.645918e-06
0.99876475,0.0,9.536743e-07,5.9604645e-08,5.364418e-07,7.3313713e-06,0.0007968247,1.1920929e-07,1.9967556e-05,1.1622906e-06
3.296137e-05,0.0001052618,0.03635794,0.0012473166,0.00038388371,0.9947325,0.025325835,0.0018303096,0.002668023,0.00017350912
0.0023866296,1.4901161e-07,5.4836273e-06,7.748604e-07,0.0,2.771616e-06,6.66976e-05,0.9933609,1.3589859e-05,0.0001424849
1.3679266e-05,5.364418e-07,0.016768217,3.4570694e-06,1.5586615e-05,0.9995614,0.0069544613,3.3080578e-05,0.033263892,1.9192696e-05
0.00063702464,1.3113022e-06,0.003753215,0.00028258562,0.00015980005,0.99773663,0.041263252,0.0010487437,0.00016462803,1.9341707e-05
2.8967857e-05,7.0929527e-06,0.018057108,0.00011137128,0.00013884902,0.9996127,0.016646922,0.00051531196,0.040132314,7.110834e-05
0.035400182,8.6426735e-07,0.0041617453,7.4505806e-06,9.012222e-05,1.14142895e-05,0.0007432401,0.00015115738,0.14683306,0.75925523
0.0003080666,2.965331e-05,0.9987426,0.00019794703,0.06934717,3.9309263e-05,0.00010290742,2.7894974e-05,0.0021055937,0.00055879354
8.136034e-06,3.966689e-05,0.0009545982,0.99979794,9.5158815e-05,3.59118e-05,0.0008595586,6.377697e-05,0.00027489662,1.6093254e-06
0.99021256,0.0,6.6161156e-06,5.066395e-07,0.000106066465,9.745359e-06,0.0015434325,2.9802322e-08,0.0019498467,4.4941902e-05
0.99856895,0.0,1.7881393e-06,0.0,3.5762787e-07,7.95722e-06,0.0006687045,2.0861626e-07,9.030104e-06,2.026558e-06
0.000108122826,5.6028366e-06,0.009110719,0.00040605664,0.00020250678,0.9990505,0.026194245,0.001696378,0.033373386,0.00011116266
0.006590605,0.000738889,2.503395e-05,0.0005156994,9.23872e-07,0.0016025305,0.90864587,0.00086697936,0.008988857,0.0022383332
0.00010159612,0.00018572807,0.9954793,0.0010278821,0.6662925,0.0005123019,0.00042837858,8.672476e-06,0.004443288,0.0005416572
0.014330894,7.4505806e-07,0.0045108795,4.425645e-05,0.00015091896,0.99573743,0.021981627,0.0008677542,0.00012287498,2.1755695e-05
0.99497664,0.0,3.8415194e-05,5.453825e-06,1.1622906e-06,0.00022560358,0.0015335381,4.6133995e-05,0.0010164678,0.00015354156
0.1700859,0.0012683272,0.009663105,9.298325e-06,5.9604645e-08,5.185604e-06,0.0003091395,0.11776179,0.011288285,0.22392976
0.00021317601,7.453561e-05,0.023913443,0.000813812,0.00065869093,0.99799573,0.042402864,0.0027829409,0.13705748,0.0003630519
0.98544097,1.1920929e-07,0.0004852414,9.146333e-05,7.6413155e-05,0.0022729933,0.0025319755,0.00014215708,0.00087699294,0.0013639331
0.00037178397,7.5101852e-06,0.010518551,0.0006684661,0.0003272891,0.9993589,0.024032742,0.0015251338,0.024380833,4.887581e-05
0.99561465,0.0,0.000119775534,1.1712313e-05,1.1920929e-07,0.0005284548,0.00073060393,0.00088122487,4.3272972e-05,1.7255545e-05
0.002013594,0.0,1.0460615e-05,4.6938658e-05,8.6426735e-07,5.364418e-07,0.0007697344,0.0,0.994908,2.4735928e-06
0.0011435747,0.024749458,0.7242716,0.00600031,0.02541694,0.9508951,0.004000813,0.0011183918,0.022772104,0.0003258884
0.9925641,0.0,3.3825636e-05,4.142523e-06,1.4305115e-06,0.00010445714,0.0014221072,1.4603138e-05,0.0044938326,6.604195e-05
2.4586916e-05,0.017151177,0.0004943013,0.9893991,0.02946502,0.019592732,0.5995282,0.000117748976,0.00034287572,0.00036656857
0.99736714,0.0,5.841255e-06,4.172325e-07,1.7881393e-07,2.7656555e-05,0.0011374652,8.910894e-06,0.00020265579,1.4990568e-05
0.0002464354,6.7949295e-06,0.00016272068,0.9995756,0.003380537,2.297759e-05,0.0016808808,3.3974648e-06,0.0003259778,1.2814999e-06
0.9936456,0.0,1.8775463e-06,4.172325e-07,1.4901161e-07,4.9471855e-06,0.00282982,1.1026859e-06,0.004300028,3.7252903e-06
0.040451676,9.536743e-07,0.00036290288,0.00019571185,5.763769e-05,0.00034242868,0.008233219,4.091859e-05,0.9307387,0.0011992455
7.259846e-05,6.109476e-05,0.012254864,9.3996525e-05,5.0991774e-05,0.96862125,0.05353424,0.00052693486,0.0009354055,0.00064614415
0.0002989769,9.62615e-06,0.000102341175,0.9992666,9.2595816e-05,1.6897917e-05,0.0030908287,5.0991774e-05,6.482005e-05,1.7881393e-06
0.99746364,0.0,7.033348e-06,6.2584877e-07,3.2186508e-06,5.787611e-05,0.0010530055,1.0728836e-06,8.395314e-05,8.821487e-06
0.0002348125,0.0,0.000106066465,3.9994717e-05,4.082918e-06,2.3841858e-06,0.0004696548,2.0861626e-07,0.9984045,5.096197e-06
0.0291287,0.00014439225,0.9628798,0.0008414984,0.0014158487,0.0005180836,0.00087836385,0.01481387,0.0005585849,0.009574205
0.0016382635,0.636519,0.14459285,0.0003386438,0.0001116693,0.0013485551,0.010408908,0.00076776743,0.0033186674,0.03720036
0.998446,0.0,1.758337e-06,1.1920929e-07,1.8775463e-06,1.3649464e-05,0.0008954704,2.0861626e-07,7.507205e-05,3.0100346e-06
0.0011420846,2.3841858e-07,4.3302774e-05,6.237626e-05,1.7881393e-07,2.3841858e-06,0.0010913908,1.7881393e-06,0.99736387,2.0861626e-06
0.9972992,0.0,1.847744e-06,4.172325e-07,3.2186508e-06,1.23381615e-05,0.00073060393,1.1920929e-07,0.00014147162,2.7120113e-06
0.00010743737,0.33021232,0.7235077,0.88981915,0.032239795,0.041832805,0.044504315,0.00034695864,0.8388336,6.148219e-05
0.2995445,8.940697e-08,3.4809113e-05,0.00026330352,4.172325e-07,8.314848e-06,0.0014656782,2.0444393e-05,0.88526917,1.2010336e-05
0.99830735,0.0,4.351139e-06,1.1920929e-07,4.172325e-07,2.0384789e-05,0.00070619583,1.1026859e-06,3.8564205e-05,8.016825e-06
0.99773854,0.0,2.7149916e-05,1.0728836e-06,8.940697e-08,0.00017386675,0.0010526776,0.0002130568,1.7464161e-05,7.688999e-06
0.08965951,7.1823597e-06,4.7385693e-06,3.2186508e-06,3.9041042e-06,0.001018852,0.9124852,1.9788742e-05,2.1010637e-05,0.00037252903
0.9949309,0.0,1.1920929e-06,1.7881393e-07,1.937151e-06,2.8312206e-06,0.00096958876,8.940697e-08,0.00097072124,7.390976e-06
0.9665663,8.940697e-08,0.00013524294,6.4969063e-06,2.8908253e-06,7.1793795e-05,0.0049653053,1.8954277e-05,0.062246233,0.0004220307
0.00018492341,0.0,3.5464764e-06,1.218915e-05,1.5199184e-06,2.682209e-07,0.00086033344,0.0,0.9977111,1.9967556e-06
0.97751606,1.1622906e-06,0.000918746,7.5399876e-06,0.000117987394,0.0015746355,0.02075085,0.00055754185,0.00031632185,0.013311118
0.0008058846,1.8209219e-05,0.0024405718,0.0009830296,2.1755695e-06,0.000110358,0.004122108,5.8323145e-05,0.9956519,2.130866e-05
2.5570393e-05,2.9802322e-07,0.003412813,0.9949059,0.9989456,5.3465366e-05,0.0067491233,0.0,0.0086423755,7.748604e-07
0.9985609,0.0,5.364418e-06,1.1920929e-07,1.1920929e-06,4.6253204e-05,0.00082203746,2.9802322e-07,7.6144934e-05,2.5689602e-05
0.8364041,2.9802322e-08,8.958578e-05,5.632639e-06,7.4505806e-07,6.943941e-06,0.0023001432,1.564622e-05,0.54994917,4.631281e-05
0.9051777,8.34465e-07,0.0003090799,0.00013375282,1.7881393e-07,0.00070384145,0.004107654,0.013588488,0.53407776,0.0001449585
0.00066542625,2.4050474e-05,9.387732e-06,1.0311604e-05,2.8699636e-05,0.022594213,0.95113087,6.28829e-06,7.799268e-05,0.0063755214
0.001106292,4.0739775e-05,0.000100404024,3.916025e-05,0.0,9.1820955e-05,0.0011481345,0.9734162,0.016806424,0.02495727
0.0001745522,0.0013429224,0.003742814,0.9987643,0.00015106797,0.0009159148,0.036590695,0.018203557,3.963709e-05,3.9756298e-05
9.518862e-05,2.399087e-05,1.6242266e-05,0.00012329221,2.5749207e-05,0.24508399,0.9134309,5.736947e-05,0.0035864413,0.0025472045
0.0005015731,0.07004535,0.063825846,0.02114594,0.7648921,0.058383286,0.26417428,2.95043e-06,0.64421046,0.0030614436
0.00037440658,8.800626e-05,0.998208,0.00038650632,0.08975646,0.0001758635,0.00026726723,1.31726265e-05,0.024680436,0.00019317865
0.0003670752,1.1920929e-07,2.2053719e-05,6.0021877e-05,1.4901161e-07,1.9073486e-06,0.0006838739,2.861023e-06,0.99797267,4.6789646e-06
0.9978397,0.0,1.6182661e-05,9.834766e-07,6.854534e-07,0.00021776557,0.0012442768,1.1056662e-05,2.759695e-05,6.943941e-06
0.9952234,1.1920929e-07,0.00015836954,1.0550022e-05,5.364418e-07,0.0014778376,0.0018955469,0.00073319674,0.00017267466,7.0273876e-05
0.00085937977,9.23872e-07,3.8266182e-05,0.99937344,0.0050028563,1.6450882e-05,0.0015015602,2.8282404e-05,3.284216e-05,9.596348e-06
3.9428473e-05,3.516674e-06,7.2687864e-05,0.99983877,0.004779905,2.026558e-05,0.00284791,1.8775463e-06,6.848574e-05,6.2584877e-07
0.006542325,0.0,4.339218e-05,5.877018e-05,8.940697e-08,2.5629997e-06,0.0009846091,2.682209e-06,0.995438,4.4703484e-07
0.99737626,0.0,8.136034e-06,7.748604e-07,5.990267e-06,7.221103e-05,0.0006841719,6.2584877e-07,3.5494566e-05,9.834766e-06
0.99620175,0.0,5.978346e-05,1.8179417e-06,6.556511e-06,0.000638932,0.0024441779,1.2457371e-05,8.824468e-05,2.3424625e-05
0.20992255,1.32620335e-05,6.3180923e-06,2.8312206e-06,1.8894672e-05,0.00044056773,0.8199308,5.751848e-06,0.0002655983,0.0008415282
0.001252681,0.015249193,0.00032061338,0.0028111935,0.0032752156,0.018788964,0.93480104,6.964803e-05,0.00040483475,0.01543957
0.9909669,2.9802322e-08,4.7028065e-05,8.612871e-06,1.937151e-06,0.00029671192,0.0038629174,4.1157007e-05,0.0048514307,7.620454e-05
0.0363369,5.325675e-05,3.07858e-05,4.0203333e-05,0.00014552474,0.0040649474,0.88036317,8.6426735e-06,0.0003001392,0.00097468495
0.03130889,1.5854836e-05,0.00028702617,0.00027883053,4.172325e-06,0.000413388,0.03599477,0.0017551482,0.9232079,0.010723084
0.74114096,5.662441e-07,0.00013449788,0.0012285411,9.23872e-07,8.85725e-05,0.0033482611,0.00019475818,0.7454028,6.338954e-05
0.00019484758,5.9604645e-08,5.2660704e-05,0.0013196766,8.225441e-05,1.0192394e-05,0.0022386909,0.0,0.99700505,6.467104e-06
5.4001808e-05,0.92302793,0.0023534894,0.01151377,1.9073486e-06,0.0015972853,0.048262954,8.329749e-05,0.97970736,0.00031366944
0.0027645528,0.0,0.00012359023,7.736683e-05,1.3381243e-05,3.5762787e-06,0.0022408366,4.172325e-07,0.9913206,0.000111699104
0.0005336702,0.00018158555,0.9979253,0.0016815364,0.046023875,0.00027370453,0.00031730533,8.532405e-05,0.11548737,0.00047504902
0.003672719,0.70702326,0.44547343,0.14530736,0.0007016957,0.010139227,0.021888644,0.009660035,0.018620342,0.004631132
0.14371935,0.0,6.619096e-05,0.00014203787,1.886487e-05,2.8312206e-06,0.0013171136,1.7881393e-06,0.95032597,0.0001603365
0.00013831258,0.8981931,0.0012676418,0.0064813197,4.529953e-06,0.002585113,0.08099687,0.00014597178,0.9462534,0.0023848116
0.0033986568,0.81135106,0.033640087,0.0115510225,0.000108748674,0.0036441386,0.055737942,0.002588421,0.60856086,0.018436164
0.013726473,0.2899899,0.1353204,0.0020291507,0.00060382485,0.0020171702,0.020865947,0.009630531,0.0033542216,0.21402684
2.065301e-05,4.1127205e-06,0.009164751,0.00019481778,9.256601e-05,0.9998522,0.017740399,0.00094267726,0.01745665,1.9222498e-05
0.0018886924,0.20502388,0.088566005,0.012272656,0.67489666,0.096963614,0.324314,4.5597553e-05,0.00046023726,0.01391837
0.00017225742,0.0004913509,0.99874824,0.0020656288,0.027866155,0.0004015565,0.0002667606,9.2595816e-05,0.49089962,0.0003221929
0.986964,5.9604645e-08,0.0004916787,1.847744e-06,2.7775764e-05,0.00036913157,0.0022788644,0.00017473102,8.776784e-05,0.0053165853
0.0001245141,0.0023455322,0.032826364,0.79797745,0.48351195,0.9905571,0.2583013,0.0016460419,0.007182479,0.00023779273
0.9939377,0.0,4.3213367e-06,5.9604645e-07,0.00013616681,7.867813e-06,0.0005995035,5.9604645e-08,0.00047460198,2.7447939e-05
1.1086464e-05,0.12462777,0.011351466,0.99905026,0.074736744,0.061089158,0.35545996,0.0006274581,0.35708553,0.00017377734
0.002215147,1.7285347e-06,1.052022e-05,2.1278858e-05,0.0,1.4305115e-06,7.081032e-05,0.9878125,2.0086765e-05,0.00027292967
0.9805367,1.9073486e-06,0.0007523,1.5318394e-05,5.066395e-07,0.0016095638,0.00849399,0.018887192,0.0009138584,0.0004568398
0.99553216,5.9604645e-08,0.00047773123,9.23872e-07,9.864569e-06,0.0020596087,0.004730642,0.00014704466,1.5884638e-05,6.5118074e-05
0.99739623,0.0,8.910894e-06,2.1457672e-06,1.0728836e-06,8.7976456e-05,0.0010274649,3.0696392e-06,0.0001514256,8.434057e-06
0.00024268031,0.0,0.0,0.0,7.748604e-07,0.0,0.0,0.0,0.0005886555,0.99877536
0.002257675,0.00013637543,2.5629997e-06,0.0011220276,0.0,0.00027424097,0.56887484,0.20857146,0.0037762523,0.0013570487
0.00021484494,8.940697e-08,7.2687864e-05,0.00012859702,1.129508e-05,7.2717667e-06,0.0012622178,3.2782555e-07,0.99782556,1.2457371e-05
0.00028941035,2.7120113e-06,0.00011125207,0.9943644,0.16243517,3.439188e-05,0.005907923,3.3080578e-06,0.0005595088,0.00021097064
0.2684392,1.758337e-06,0.025598079,2.0086765e-05,0.053798795,9.265542e-05,0.006187916,4.887581e-06,0.19914675,0.6298308
6.28531e-05,0.16664559,0.017034322,0.98276675,0.00013411045,0.0021631718,0.09142861,0.0048404336,0.70486593,6.258488e-05
0.00019130111,5.9604645e-08,3.4451485e-05,0.00012150407,4.7683716e-07,2.1457672e-06,0.0005079508,1.1920929e-06,0.9987626,3.4570694e-06
0.99864686,0.0,1.1026859e-06,5.9604645e-08,4.4703484e-07,6.9737434e-06,0.0011037588,5.9604645e-08,7.477403e-05,2.5331974e-06
0.0013850033,0.00064748526,0.00015604496,0.0006482899,0.00024151802,0.029659718,0.8754246,3.6150217e-05,0.0002502799,0.00080141425
0.9981517,0.0,8.493662e-06,8.940697e-08,5.364418e-07,3.939867e-05,0.0007570088,3.0696392e-06,1.0877848e-05,1.4662743e-05
9.122491e-05,0.038478404,0.07329261,0.96119297,0.82410467,0.9593561,0.2888311,0.0003476441,0.004304379,0.0001861453
0.21912536,3.707409e-05,0.87288356,0.00013700128,0.0003966689,0.00084766746,0.00092068315,0.003499359,0.0002849102,0.0015729964
0.0011032224,1.4901161e-06,3.8057566e-05,0.99960697,0.00032636523,1.6361475e-05,0.00070619583,7.933378e-05,0.00018915534,2.5570393e-05
0.059752107,1.5854836e-05,1.4394522e-05,9.000301e-06,8.493662e-06,0.0037961304,0.86967945,4.580617e-05,3.5494566e-05,0.0013314486
0.115309924,9.23872e-07,7.659197e-05,7.6293945e-06,0.0,3.1083822e-05,0.00025746226,0.95610934,0.00010278821,0.0012727976
7.537007e-05,4.428625e-05,0.0004981458,0.99970233,0.0048375726,6.9499016e-05,0.0034891367,2.5331974e-06,0.015223235,1.2814999e-06
0.00019454956,0.9611025,0.0030927956,0.0003938377,6.556511e-07,0.0007659495,0.017029524,0.00019577146,0.55173486,0.005949348
0.00040200353,0.0,7.748604e-07,0.0,4.7683716e-07,0.0,3.2782555e-07,0.0,0.00043651462,0.9984989
0.006808728,0.0,4.068017e-05,1.4901161e-07,8.314848e-06,1.4901161e-07,1.680851e-05,1.7881393e-07,0.030824512,0.97494495
0.76676714,0.0,1.8626451e-05,2.0354986e-05,1.5795231e-06,4.053116e-06,0.001670152,1.4901161e-06,0.6771448,7.6293945e-06
0.00022879243,3.1292439e-06,0.008951038,0.00012278557,0.00019288063,0.99951005,0.021135926,0.0008728206,0.025855541,6.651878e-05
4.8458576e-05,2.115965e-06,0.0036981702,0.9949728,0.999148,0.00037002563,0.009268403,8.940697e-08,0.000700742,1.7762184e-05
0.0026701987,0.0,1.8179417e-06,4.4703484e-07,0.0,1.013279e-06,6.648898e-05,0.9938806,1.963973e-05,0.0001065135
0.0005480051,0.0,1.5556812e-05,4.5597553e-06,4.8577785e-06,2.2649765e-06,0.003668964,0.0,0.9947814,6.5505505e-05
0.9969751,0.0,4.211068e-05,5.662441e-07,2.9802322e-08,0.00013303757,0.0009563565,0.00048351288,4.0709972e-05,2.527237e-05
0.0026074946,2.026558e-06,3.2186508e-06,2.604723e-05,0.0,1.1026859e-06,0.00014814734,0.9869231,0.00029924512,0.0002529621
0.000261724,1.8060207e-05,0.99775624,0.0008510649,0.12050587,0.00016182661,0.00017616153,6.377697e-06,0.0022907853,6.836653e-05
0.00024279952,0.0,4.300475e-05,6.338954e-05,3.2484531e-06,2.3543835e-06,0.00076690316,2.9802322e-08,0.9984944,6.854534e-07
0.0023185909,0.0010659099,5.3852797e-05,0.0007776916,0.00027263165,0.010774553,0.9128938,3.2782555e-05,0.009813964,0.011778861
0.08031365,1.5497208e-06,0.00012129545,0.0001616776,1.3709068e-06,1.3977289e-05,0.0039924383,0.00011307001,0.9675971,0.00033903122
2.2053719e-06,2.9802322e-08,0.0016306341,1.9669533e-06,2.8908253e-06,0.99927616,0.018144429,2.5302172e-05,0.012771189,3.0517578e-05
0.9674063,1.4305115e-06,0.00011995435,0.00014653802,1.7881393e-07,0.00018045306,0.0025155544,0.009675562,0.022615224,0.001241684
0.99321705,0.0,9.3370676e-05,1.2040138e-05,5.9604645e-08,0.0006802678,0.0014404356,0.0024998784,0.00018525124,5.1796436e-05
0.0009698272,0.13150528,0.013891846,4.938245e-05,8.34465e-07,2.7805567e-05,0.004042238,0.0010095239,0.84705913,0.01958698
0.0010243952,0.00020265579,2.1457672e-06,3.2752752e-05,2.5719404e-05,0.0006251037,0.9863766,4.23193e-06,2.6404858e-05,0.0030707717
0.998404,0.0,1.680851e-05,5.9604645e-08,2.3841858e-07,0.00010719895,0.0011906624,1.1503696e-05,6.109476e-06,5.632639e-06
7.1823597e-06,8.264184e-05,0.0008864105,0.9996892,0.00035965443,4.6133995e-05,0.001006186,2.0742416e-05,0.0046886206,1.7285347e-06
0.0005502701,0.0,1.4305115e-06,5.9604645e-07,0.0,2.682209e-07,3.6656857e-05,0.99442583,1.1473894e-05,0.00017723441
0.0004222989,1.1920929e-07,4.9620867e-05,7.8737736e-05,7.1525574e-07,2.682209e-06,0.0009774864,1.1026859e-06,0.99805623,6.854534e-06
0.36373472,0.0011784732,0.004892081,0.0001668036,1.1026859e-05,0.0001873374,0.015776336,0.00024813414,0.62892485,0.00073978305
7.05421e-05,3.874302e-07,1.1980534e-05,6.2286854e-06,0.0,2.6524067e-06,4.553795e-05,0.99684477,0.00011301041,0.001146853
8.568168e-05,0.0058760345,5.3942204e-06,0.0007850826,2.938509e-05,0.0010721684,0.977062,6.380677e-05,0.00038713217,0.031889647
0.053244233,2.682209e-07,6.54161e-05,0.00017684698,2.3841858e-07,1.3142824e-05,0.0042539835,2.643466e-05,0.98442847,8.225441e-06
0.00024268031,0.0,0.0,0.0,7.748604e-07,0.0,0.0,0.0,0.0005886555,0.99877536
0.0006518066,0.9178844,0.0135240555,0.009091765,4.887581e-06,0.002259642,0.021996528,0.0015090108,0.83621365,0.009299934
0.017026752,8.34465e-07,0.0001463592,0.00024288893,3.5762787e-07,9.089708e-06,0.0024522543,0.00019749999,0.9869612,0.00014203787
0.0002129972,1.9967556e-06,0.008839637,0.00029093027,0.00016108155,0.99916613,0.023209572,0.0020037293,0.00051677227,2.2113323e-05
0.9984635,0.0,2.2649765e-06,2.9802322e-08,5.662441e-07,1.180172e-05,0.00085279346,2.3841858e-07,1.9937754e-05,3.5762787e-06
0.99863064,0.0,2.1457672e-06,1.4901161e-07,8.940697e-08,3.2514334e-05,0.0018111467,2.8312206e-06,0.00013756752,2.3245811e-06
0.9977135,0.0,9.775162e-06,4.7683716e-07,0.0,3.3468008e-05,0.0010139346,4.4435263e-05,7.6293945e-05,5.1259995e-06
0.9977491,0.0,8.2701445e-05,2.3841858e-07,1.1622906e-06,0.0007098913,0.0029667914,6.937981e-05,8.583069e-06,1.4901161e-05
0.00037401915,0.0,4.2140484e-05,0.00016361475,6.645918e-06,2.2053719e-06,0.0012772083,0.0,0.9984579,1.1026859e-06
0.9989963,0.0,3.1888485e-06,5.9604645e-08,5.9604645e-08,2.1249056e-05,0.0011130273,1.2814999e-06,8.672476e-06,1.9073486e-06
0.0011445284,7.748604e-07,0.0068586767,2.3186207e-05,0.00024867058,0.98885715,0.03449911,0.00042292476,0.0022839904,0.00046792626
0.15068424,3.5762787e-07,2.6404858e-05,7.69794e-05,1.5199184e-06,2.771616e-06,0.00461939,2.2649765e-06,0.97424394,2.3424625e-05
0.8476237,6.4074993e-06,0.00030368567,3.4421682e-05,0.0,8.612871e-05,0.0027864575,0.53732854,0.00024169683,0.0014635026
0.011641413,0.21337938,0.7045412,0.0012400448,0.0009241402,0.002369672,0.0070270896,0.0015279949,0.001645565,0.011732608
8.881092e-05,0.940305,0.009039909,0.048296005,0.00014936924,0.024026632,0.13703614,0.002950281,0.066486984,0.013600498
0.9984689,0.0,6.3478947e-06,8.940697e-08,2.0861626e-07,2.3186207e-05,0.0006173253,2.3841858e-06,8.970499e-06,4.7683716e-06
9.685755e-05,6.067753e-05,0.01843226,0.00655815,0.0041912794,0.9990163,0.049388766,0.0009391904,0.010605961,7.015467e-05
0.9992455,0.0,6.2584877e-07,0.0,2.0861626e-07,8.672476e-06,0.001104027,2.9802322e-08,8.076429e-06,7.4505806e-07
5.7816505e-05,1.2218952e-06,0.00052699447,0.9938375,0.8796735,3.46303e-05,0.004721701,2.9802322e-08,0.017620653,6.556511e-06
0.0027571023,5.9604645e-08,0.0004644096,0.00025185943,3.6656857e-05,9.62615e-06,0.001889348,2.682209e-06,0.99341977,7.18236e-05
0.9608402,5.364418e-07,0.00013750792,1.835823e-05,0.0,8.749962e-05,0.0010972619,0.24810708,0.00014421344,0.00039160252
0.013463438,1.1920929e-07,3.2246113e-05,0.00035360456,3.3676624e-06,2.2351742e-06,0.0019205213,3.2782555e-07,0.9923846,5.930662e-06
0.99861586,0.0,1.3411045e-06,2.9802322e-08,3.1888485e-06,1.1175871e-05,0.0006569028,8.940697e-08,8.225441e-06,1.9669533e-06
0.0015461147,5.9604645e-08,0.0010896921,0.00039350986,6.645918e-06,1.731515e-05,0.0015702844,1.1175871e-05,0.9961357,3.0696392e-05
0.016045868,4.976988e-06,0.000120162964,0.9916409,0.0014159679,9.953976e-06,0.0013866425,1.32620335e-05,0.0010959208,1.8954277e-05
0.9988802,0.0,2.8908253e-06,0.0,2.3841858e-07,2.1249056e-05,0.0009059906,5.364418e-07,1.0669231e-05,5.722046e-06
0.025429279,0.0,4.324317e-05,3.6746264e-05,7.301569e-06,2.115965e-06,0.0015603602,4.172325e-07,0.98166263,4.6938658e-05
2.2023916e-05,1.1622906e-06,0.0049637854,0.00012287498,5.6564808e-05,0.9997432,0.01884839,0.0005219579,0.0005595684,9.4771385e-06
0.9313841,8.940697e-08,3.027916e-05,1.0639429e-05,5.0008297e-05,1.0728836e-05,0.0027084053,9.536743e-07,0.28317827,0.00018420815
0.011386484,2.0563602e-06,0.00014707446,7.432699e-05,2.6226044e-06,1.5050173e-05,0.009794444,7.867813e-06,0.98355794,0.0003591478
0.0003054142,5.096197e-06,0.0016076267,0.9963966,6.5892935e-05,5.3048134e-06,0.00018721819,0.0001694262,1.4394522e-05,1.0073185e-05
0.9965279,5.9604645e-08,1.6987324e-05,3.784895e-06,0.0,0.00018513203,0.0019443333,0.00019824505,0.00079867244,1.5348196e-05
0.00035488605,0.00020045042,0.0005887747,0.9991179,0.00088098645,0.00053462386,0.034618467,0.0025408864,9.915233e-05,4.6104193e-05
0.00035738945,5.2452087e-06,5.608797e-05,0.99921846,0.00072568655,9.834766e-06,0.0013949871,1.937151e-06,0.0053914487,2.2053719e-06
0.00041091442,4.7266483e-05,1.66893e-06,1.54078e-05,2.3841858e-07,0.0022878945,0.95423687,0.0017701685,0.00093093514,0.017172992
0.020318061,6.854534e-07,0.00013971329,1.6391277e-06,2.5063753e-05,7.4505806e-06,0.00061541796,1.2725592e-05,0.14181724,0.87728894
6.005168e-05,2.0861626e-07,3.9875507e-05,0.99852645,0.15008327,2.3543835e-06,0.00096309185,8.940697e-08,0.009192288,5.4240227e-06
0.50538313,2.9802322e-08,9.0032816e-05,0.00026202202,8.5532665e-06,9.000301e-06,0.0017824173,1.9669533e-06,0.8793292,1.4901161e-05
0.0001540482,0.8484911,0.029783428,0.5829135,3.5464764e-05,0.0047308207,0.07508996,0.00083073974,0.94568396,0.00014927983
9.36687e-05,7.748604e-07,5.531311e-05,0.99946684,0.006519884,6.2286854e-06,0.00060993433,4.4703484e-07,0.0001565218,3.874302e-07
0.20253071,5.066395e-07,0.00018340349,7.599592e-06,1.22487545e-05,1.3411045e-06,0.00064891577,2.8908253e-05,0.52568233,0.30459887
4.5776367e-05,9.298325e-06,0.0005810857,0.9996155,6.5892935e-05,2.0951033e-05,0.0021776557,0.00025737286,1.052022e-05,3.2484531e-06
2.4944544e-05,0.00031250715,8.46386e-06,7.599592e-06,2.169609e-05,0.04305911,0.89389515,1.1622906e-06,0.7383151,0.002467364
0.005236119,0.00012534857,0.98249614,0.002600491,0.1625329,0.0003106594,0.0010216236,0.00010827184,0.0036590695,0.0028006732
0.99685705,0.0,1.3291836e-05,1.2516975e-06,1.7881393e-07,7.328391e-05,0.0015748441,3.9964914e-05,0.00021120906,1.5377998e-05
0.9919043,0.0,8.46386e-06,2.3841858e-07,2.9802322e-07,1.129508e-05,0.002428621,1.1622906e-06,0.0050581396,9.447336e-06
0.00012400746,6.854534e-06,0.009608865,0.001594007,0.00014927983,0.9989698,0.035225123,0.0044658184,0.00024968386,2.1249056e-05
0.00020551682,6.4969063e-06,3.874302e-07,5.0365925e-06,1.1920929e-07,4.7683716e-07,7.098913e-05,1.5377998e-05,0.013022542,0.825183
0.99881566,0.0,2.1755695e-06,2.9802322e-08,1.1920929e-07,9.5665455e-06,0.0011251569,2.592802e-06,1.0251999e-05,1.3411045e-06
0.0014973581,0.0,8.147955e-05,0.0002014041,1.937151e-06,4.1127205e-06,0.001377672,1.4901161e-07,0.9966338,2.2053719e-06
0.9963391,0.0,1.3649464e-05,1.1920929e-07,7.2717667e-06,4.0858984e-05,0.0012786388,6.854534e-07,0.00012007356,7.57575e-05
0.98845285,0.0,7.2717667e-06,1.3113022e-05,6.854534e-07,3.066659e-05,0.0015800297,5.3942204e-06,0.0068455935,1.0430813e-05
0.00031849742,0.002626747,3.9339066e-06,9.897351e-05,0.000218153,0.0014446378,0.98587537,1.013279e-06,0.0014997423,0.0074062943
0.13121215,2.2023916e-05,0.8952806,0.00026795268,0.0020635724,0.0003286898,0.0010344684,0.0019279122,0.00038987398,0.005901575
0.9929849,2.9802322e-08,0.00017267466,9.447336e-06,5.096197e-06,0.0004886687,0.0007750988,0.0002207756,0.00012648106,0.0005608499
0.022357702,0.00020906329,0.01208961,0.0009469986,0.13457763,0.0012615919,0.049292386,4.0858984e-05,0.009513706,0.68038446
0.0026610792,0.90734375,0.020268798,0.013577729,6.118417e-05,0.0064835846,0.076705605,0.0017803907,0.66619325,0.014356017
0.99528414,0.0,0.00012648106,7.748604e-07,6.7055225e-06,0.00026601553,0.001375854,3.2037497e-05,0.00013369322,0.0004454553
0.00010716915,1.66893e-06,6.5892935e-05,0.99522173,0.17612472,4.2915344e-06,0.001178354,0.0,0.50116664,1.7374754e-05
0.79025555,1.013279e-06,0.107286274,1.6093254e-05,0.0004517734,0.000400424,0.005070895,0.0013298988,0.004901767,0.023098558
0.34836438,1.9967556e-06,0.00018894672,0.00016480684,1.4901161e-06,3.4093857e-05,0.006450832,0.00033199787,0.88934696,0.00065109134
7.587671e-05,0.0036613941,0.9450133,0.33029258,0.0065413117,0.0029987097,0.002411157,5.3077936e-05,0.9796602,2.3335218e-05
0.44721553,1.7255545e-05,0.0019690394,2.2351742e-05,0.0,9.030104e-06,0.0001963973,0.55360216,0.0006971061,0.022225082
0.0008419156,0.00023293495,0.9686955,0.007657796,0.007617831,0.001003772,0.0021640956,0.0009378195,0.9422456,0.0013886094
0.9971781,0.0,2.6524067e-06,4.172325e-07,2.3543835e-05,1.5348196e-05,0.00066903234,2.9802322e-08,0.00016003847,5.275011e-06
9.316206e-05,0.0022589564,0.0009056628,0.9583053,8.076429e-06,6.0528517e-05,0.009527177,0.0006239116,0.94490266,2.5421381e-05
3.0636787e-05,1.9907951e-05,0.0020359159,0.99921286,2.5868416e-05,2.9325485e-05,0.0008881092,0.0002988577,2.2917986e-05,2.95043e-06
0.00045078993,1.4901161e-07,3.3795834e-05,7.161498e-05,5.8710575e-06,3.33786e-06,0.006560236,5.9604645e-08,0.996662,8.821487e-06
1.0192394e-05,0.52402323,0.23108223,0.9990237,0.5749524,0.38053668,0.33664224,0.00065252185,0.053653717,6.508827e-05
0.9987496,0.0,3.516674e-06,1.1920929e-07,5.9604645e-08,2.6762486e-05,0.0010630488,3.5762787e-06,2.8073788e-05,1.5497208e-06
0.00061297417,0.9181506,0.022720546,0.004362613,3.2424927e-05,0.0035005212,0.034125358,0.0013394952,0.6894069,0.024343193
0.99911565,0.0,5.662441e-07,0.0,1.7881393e-07,4.7385693e-06,0.0009199083,5.9604645e-08,8.910894e-06,4.7683716e-07
0.0018734932,1.1920929e-07,0.0002847016,0.00029453635,2.682209e-07,1.1473894e-05,0.00057429075,8.434057e-05,0.9961708,1.591444e-05
0.034383684,0.00051781535,0.013019741,0.00015765429,1.0728836e-06,7.399917e-05,0.0034505427,0.019019395,0.9099232,0.019117892
0.00073742867,0.61615694,0.30226022,0.9317496,0.0032963157,0.024256498,0.046416193,0.002982527,0.05766672,0.0002206564
0.9819473,1.1920929e-07,1.7940998e-05,6.54161e-05,1.1920929e-07,0.00016856194,0.00483039,0.00022247434,0.011754841,1.2308359e-05
2.9534101e-05,1.9580126e-05,0.009200603,0.0038808584,0.0019613802,0.9996469,0.048008084,0.0007415414,0.003913969,4.4375658e-05
0.9918541,0.0,0.000156492,2.3156404e-05,1.7881393e-07,0.0003734827,0.0010365248,0.0071655214,0.00022089481,0.00022113323
0.002117753,3.516674e-06,5.1289797e-05,0.00087326765,0.0,0.0001975596,0.0023199916,0.0049886405,0.99335635,1.975894e-05
0.000302881,0.9330356,0.0044282377,0.007859975,1.7881393e-06,0.0014287233,0.03305736,0.0009071827,0.9030155,0.0035687983
0.9984044,0.0,4.720688e-05,2.0861626e-07,9.834766e-07,0.00027009845,0.0012351274,3.2752752e-05,5.763769e-05,4.87864e-05
0.00081577897,0.00014179945,0.008023441,0.000114917755,0.00052908063,0.9694073,0.17643669,0.00012382865,0.21517023,0.002379477
0.00024291873,0.0,5.468726e-05,9.5784664e-05,2.6226044e-06,5.0365925e-06,0.002067089,8.940697e-08,0.99832594,1.847744e-06
0.0011348724,0.84636986,0.007369727,0.0275172,0.0001410842,0.0039200783,0.16380021,0.0013280511,0.601804,0.0113886595
2.336502e-05,0.000803262,0.0841732,0.019163996,0.03472796,0.9980034,0.029039145,0.0010180473,0.0017032325,0.00021329522
0.00056147575,1.5497208e-06,1.6242266e-05,8.940697e-08,0.0,6.854534e-07,7.715821e-05,0.00092175603,0.008323282,0.9405166
0.18840998,9.208918e-06,0.0005467832,0.3485422,0.00022673607,9.414554e-05,0.0018695891,1.0341406e-05,0.640688,9.804964e-06
0.00018176436,3.874302e-07,1.9311905e-05,3.2305717e-05,5.9604645e-08,5.543232e-06,0.00086694956,4.7385693e-06,0.9979866,1.31726265e-05
0.00030574203,6.854534e-07,0.00013023615,0.00016003847,2.9802322e-08,1.0788441e-05,0.00079652667,3.427267e-05,0.9982456,6.467104e-06
0.0002464652,5.9604645e-08,4.529953e-06,0.997947,4.172325e-06,8.016825e-06,0.00083088875,7.0631504e-06,3.954768e-05,1.4901161e-07
0.0003053248,3.5077333e-05,0.024558485,0.00017184019,0.00048029423,0.99838185,0.025467575,0.0022697747,0.3110174,0.0006633401
0.00086933374,0.00051420927,0.99712,0.0012321472,0.026010722,0.0003450811,0.0003439784,0.00018081069,0.04422599,0.0008789897
0.9743979,2.2053719e-06,0.0005969405,0.00033184886,1.4603138e-06,0.0011537671,0.0024488866,0.015979975,0.008665979,0.0024905503
0.00013422966,0.0007716119,3.3080578e-06,0.0001026392,1.0609627e-05,0.002051741,0.9855037,2.4527311e-05,0.00016388297,0.0077637434
0.9988911,0.0,7.748604e-07,5.9604645e-08,4.172325e-07,7.390976e-06,0.0009837449,5.9604645e-08,5.64456e-05,1.5497208e-06
0.00011885166,7.6293945e-06,0.00010430813,0.9994516,0.0008402467,1.12354755e-05,0.0013676286,1.5795231e-06,0.008471996,6.2584877e-07
0.0018230975,0.00020503998,1.385808e-05,1.2367964e-05,0.00032266974,0.0026963353,0.9459959,3.0398369e-06,0.0008767545,0.048229516
4.4465065e-05,0.0,1.4126301e-05,2.3007393e-05,1.6987324e-06,1.1026859e-06,0.0008083284,0.0,0.99932045,2.0861626e-07
0.0055022836,1.4901161e-07,4.762411e-05,8.353591e-05,4.172325e-06,4.172325e-06,0.0033670962,5.066395e-07,0.9910828,5.7190657e-05
0.00047177076,0.32361275,0.30394006,0.7942163,0.002845198,0.009538919,0.043415546,0.0006428063,0.9641473,0.0001887083
0.9985902,0.0,3.516674e-06,2.9802322e-08,5.066395e-07,2.1398067e-05,0.0007864237,7.4505806e-07,8.493662e-06,3.3974648e-06
0.9973892,0.0,1.8507242e-05,4.7683716e-07,9.536743e-07,0.00016963482,0.004314631,7.5101852e-06,0.00034597516,1.2636185e-05
0.9986383,0.0,1.9073486e-06,0.0,9.834766e-07,1.1652708e-05,0.00074097514,1.1920929e-07,2.1994114e-05,5.722046e-06
0.00025358796,0.0,8.273125e-05,0.00013118982,0.00016233325,9.953976e-06,0.0024580061,2.9802322e-08,0.99662167,3.1471252e-05
0.5604688,0.0,4.157424e-05,4.3958426e-05,1.1056662e-05,4.61936e-06,0.001281172,2.503395e-06,0.7986109,0.0002283752
0.0012240708,5.096197e-06,4.479289e-05,1.3113022e-05,0.0,1.0192394e-05,0.00015762448,0.98576623,0.0003708005,0.0018612742
0.9984977,0.0,1.5497208e-06,2.9802322e-08,1.0728836e-06,8.672476e-06,0.0006573796,1.1920929e-07,3.1799078e-05,3.784895e-06
0.00016441941,0.0494287,0.54524815,0.101902574,0.06674048,0.9801829,0.029142588,0.0065939724,0.6923377,0.0013279617
0.17691469,0.0,1.898408e-05,0.000107854605,1.2755394e-05,2.3245811e-06,0.00075122714,8.34465e-07,0.9111483,6.464124e-05
0.76436937,0.00056889653,0.04930103,0.034470916,0.0004863441,0.0108986795,0.025704682,0.011378765,0.06512976,0.00415802
0.009568602,8.165836e-06,0.0022504032,0.00043603778,7.5519085e-05,8.293986e-05,0.009456277,8.5532665e-05,0.9740797,0.0021693408
0.00013524294,0.0,5.4329634e-05,6.5654516e-05,9.179115e-06,4.3213367e-06,0.0015179515,5.9604645e-08,0.9980751,3.695488e-06
0.0028844476,0.00054705143,5.2571297e-05,0.000433892,0.00396508,0.002083391,0.9341498,6.7949295e-06,1.7732382e-05,0.0021048188
0.045405954,2.0861626e-07,3.325939e-05,7.7962875e-05,2.9802322e-07,3.3080578e-06,0.0023794174,2.6524067e-05,0.9777286,0.00034067035
0.99684316,0.0,3.796816e-05,1.2516975e-06,4.2915344e-06,0.00025349855,0.000797987,7.4505806e-06,2.6673079e-05,4.643202e-05
0.9959335,5.9604645e-08,8.9496374e-05,3.963709e-06,6.67572e-06,0.00071281195,0.0018854141,5.0723553e-05,0.00014474988,0.00011378527
0.000531584,1.2516975e-06,1.0758638e-05,7.778406e-06,0.0,1.3113022e-06,7.0273876e-05,0.9916338,3.46303e-05,0.00046294928
0.0005723536,8.6426735e-07,0.0064018667,0.00032386184,7.557869e-05,0.9989955,0.026179135,0.0045644045,0.0028536916,4.6670437e-05
0.015106857,4.4703484e-07,3.4570694e-05,8.416176e-05,4.172325e-07,4.0620565e-05,0.008758843,3.656745e-05,0.9841372,3.966689e-05
0.0030151308,0.0,0.00031247735,9.8615885e-05,3.799796e-05,4.61936e-06,0.0019016564,1.7881393e-07,0.9928762,2.7358532e-05
0.00013291836,0.00039431453,0.9817276,0.014313102,0.18460953,0.002800256,0.0019148588,0.00010880828,0.98038864,0.00052788854
0.000113487244,0.002515614,0.00015091896,0.99640477,9.0152025e-05,5.248189e-05,0.03480357,2.2172928e-05,0.6734661,1.8179417e-06
0.00019168854,0.0,1.7881393e-07,0.0,4.172325e-07,0.0,0.0,0.0,0.000331223,0.99916434
0.3846087,0.00026777387,0.120351076,0.009258151,0.013836533,0.0018714964,0.0343394,0.0010004342,0.6655058,0.05235207
0.5066911,6.642938e-05,0.006052673,0.0006607473,0.00040721893,0.0008432269,0.041676253,0.0059666038,0.027408332,0.07111922
0.99837935,0.0,9.030104e-06,2.9802322e-08,5.9604645e-07,4.979968e-05,0.0006965995,1.8775463e-06,5.811453e-06,9.655952e-06
0.99543226,2.9802322e-08,8.380413e-05,1.2457371e-05,2.0861626e-07,0.0006403327,0.0012114346,0.0007187128,0.0001886189,4.9084425e-05
0.00053450465,0.87129223,0.020535856,0.00096702576,0.00079372525,0.01309827,0.09617314,0.0001335144,0.32001802,0.01769489
0.060864568,1.4901161e-07,0.0011188984,1.2785196e-05,0.00041347742,5.4240227e-06,0.00038349628,1.0579824e-05,0.11239028,0.8088529
8.3208084e-05,0.00026535988,0.9945704,0.031606972,0.2550133,0.005869508,0.0018026233,2.6881695e-05,0.96272564,5.64456e-05
0.98102313,2.682209e-07,0.007035762,1.4275312e-05,5.632639e-06,0.0032136738,0.0027657747,0.0010816157,0.00045272708,0.00017055869
0.0006619692,0.010599226,0.08018336,0.9682331,0.0008559525,0.0016604662,0.0069336295,0.0003798604,0.69278085,3.8027763e-05
0.0005842447,0.88324904,0.1667107,0.0015667677,0.0010949969,0.013928175,0.023182422,0.00086188316,0.0052132905,0.038375825
0.0015513003,3.2782555e-07,0.00015547872,0.00025251508,1.4901161e-06,1.1652708e-05,0.002749592,9.953976e-06,0.9963216,2.6851892e-05
0.0003208518,0.00088462234,0.99093574,0.004274845,0.08633757,0.18482763,0.0007915199,0.00016090274,0.5594761,9.262562e-05
0.8124147,9.506941e-06,0.00015553832,0.005879134,4.172325e-07,0.00020691752,0.004163623,0.0017311871,0.65083164,6.213784e-05
0.9957807,2.9802322e-08,5.2839518e-05,4.4107437e-06,0.0,0.00024658442,0.0025984645,0.006709069,8.46684e-05,2.1785498e-05
0.9979846,0.0,2.9712915e-05,2.9802322e-08,0.0,5.6177378e-05,0.0013490021,0.0013367832,2.8908253e-06,3.993511e-06
0.000121206045,2.092123e-05,0.0443331,0.0004621148,0.0016644597,0.9993714,0.028536469,0.00090661645,0.6590808,0.00018966198
0.0051348805,0.0,4.711747e-05,0.00016343594,2.0861626e-07,5.9604645e-06,0.0007739067,2.0235777e-05,0.99479353,2.2053719e-06
0.05274135,6.467104e-06,0.00028166175,0.000849247,1.5199184e-06,2.7120113e-05,0.0056554675,0.00061681867,0.96594197,0.0005735457
0.23135886,0.0,0.000112205744,4.4941902e-05,2.0623207e-05,4.172325e-06,0.001501441,4.172325e-07,0.9201156,9.7215176e-05
5.7071447e-05,7.0780516e-05,0.04987496,0.00014287233,0.0012140274,0.998434,0.025592268,0.00021752715,0.37637502,0.00045192242
8.186698e-05,0.0016131699,0.0014013946,0.00096032023,0.0010332167,0.36666828,0.6734003,0.00030836463,0.001603514,0.09152317
0.9738332,1.013279e-06,0.00069871545,6.765127e-05,1.0728836e-06,0.00041392446,0.0015129447,0.016479045,0.0028631985,0.006760627
0.00064471364,3.33786e-06,6.2942505e-05,5.7816505e-06,0.0,9.119511e-06,0.00020045042,0.98644567,0.00019350648,0.011783451
0.0003950894,1.5497208e-06,0.00046756864,0.0029662251,0.9987902,1.3738871e-05,0.012327462,0.0,0.072144,0.0016001165
0.00028467178,0.13512388,0.071519315,0.0072959363,0.042907327,0.80308115,0.30621475,0.0019196868,0.24907932,0.113922924
0.9937031,0.0,1.013279e-06,3.5762787e-07,7.748604e-07,3.6358833e-06,0.002186507,2.3841858e-07,0.0021404028,3.427267e-06
2.6851892e-05,1.2367964e-05,8.532405e-05,0.99924636,0.0010050237,7.212162e-06,0.0012200177,1.3113022e-06,0.261086,2.2053719e-06
0.014022976,0.00025096536,0.30451548,0.005666226,0.08210325,0.00087043643,0.017650485,0.00015249848,0.874784,0.013376474
0.070833325,0.00020566583,0.81113875,0.0019029379,0.08358529,0.000818491,0.0133295655,0.0009005368,0.20690706,0.027391791
0.0011048913,0.0010327995,3.7252903e-06,0.00031387806,5.3942204e-06,0.0008520186,0.97230333,2.2113323e-05,0.0013170242,0.0031443238
0.92835593,5.9604645e-08,0.0001116693,1.04904175e-05,3.9577484e-05,2.5063753e-05,0.0027069151,4.4107437e-06,0.1740815,0.0006058812
0.00014260411,0.0019085407,0.0020111501,0.0026126802,0.0035555959,0.8096364,0.4955906,0.00044292212,0.054543376,0.048098713
0.0008511245,3.1292439e-06,0.013232976,0.00044241548,0.000831604,0.99459463,0.046159565,0.0018624365,0.0016380548,0.00026646256
0.9971792,0.0,9.179115e-06,7.1525574e-07,4.3213367e-06,6.183982e-05,0.0008328259,1.2218952e-06,7.6293945e-05,2.0295382e-05
0.08573225,8.940697e-08,0.0015577972,3.71933e-05,0.0007583201,1.4126301e-05,0.0015467703,8.761883e-06,0.7771957,0.14457637
8.3982944e-05,0.00032812357,0.042487264,0.0036413372,0.0029619634,0.99919236,0.044179976,0.00263232,0.42857146,0.00048702955
0.99871147,0.0,2.4437904e-06,5.9604645e-08,1.7881393e-07,1.3619661e-05,0.0011208951,1.013279e-06,1.3709068e-05,1.4901161e-06
1.937151e-05,0.009043276,0.90928805,0.971079,0.016491175,0.0050810874,0.0007299781,4.0352345e-05,0.015126705,2.8908253e-06
0.06178373,0.0,3.2246113e-05,5.811453e-05,9.4771385e-06,1.4901161e-06,0.0012580454,1.7881393e-07,0.9717249,1.937151e-05
0.032013327,1.6391277e-06,6.881356e-05,1.257658e-05,0.0,2.8908253e-06,7.83205e-05,0.94978476,1.5854836e-05,0.00085660815
0.04458815,8.940697e-07,0.00039499998,1.1026859e-06,8.940697e-08,9.864569e-06,0.0007931292,0.19056901,0.0011633635,0.33927053
0.19077444,8.940697e-08,6.5267086e-05,0.00019797683,7.1823597e-06,6.5863132e-06,0.0029160082,5.722046e-06,0.9436593,0.000105023384
0.9962229,0.0,8.934736e-05,1.013279e-06,5.066395e-07,0.00036469102,0.0013471544,0.00012534857,6.16014e-05,8.702278e-05
0.96990085,0.0,9.101629e-05,1.1920929e-07,0.0006867647,8.85129e-06,0.00017151237,1.4901161e-07,5.7190657e-05,0.054017276
0.0013927221,0.0,0.0029255152,0.0035565495,0.99933505,1.3113022e-05,0.0064198077,0.0,0.0015410185,8.9854e-05
0.9986632,0.0,2.5331974e-06,0.0,3.2782555e-07,8.016825e-06,0.00066006184,3.5762787e-07,1.0102987e-05,2.2947788e-06
0.013925761,0.39795813,0.028079301,0.013073295,0.0010954142,0.006010294,0.1486277,0.0018375218,0.71101785,0.037281066
0.9916047,0.0,1.4603138e-06,2.9802322e-07,1.9967556e-06,3.6358833e-06,0.0011211336,5.9604645e-08,0.004939139,5.155802e-06
0.00052696466,0.0,3.9428473e-05,7.897615e-06,9.486079e-05,1.3917685e-05,0.009677321,0.0,0.9890185,0.00038310885
1.0162592e-05,0.71372724,0.035458565,0.99752223,9.959936e-05,0.00546214,0.09040663,0.00070381165,0.8989823,1.3947487e-05
0.9988815,0.0,7.7188015e-06,1.4901161e-07,8.940697e-08,8.532405e-05,0.0014713705,7.033348e-06,1.1056662e-05,1.9967556e-06
0.9986471,0.0,7.4207783e-06,0.0,1.1920929e-07,1.3202429e-05,0.0005567968,2.8908253e-06,2.2649765e-06,7.0929527e-06
0.9988308,0.0,5.6624413e-06,2.0861626e-07,8.940697e-08,7.978082e-05,0.0021994412,2.3245811e-05,6.556511e-05,1.5199184e-06
0.997661,0.0,4.798174e-06,4.172325e-07,4.23193e-06,3.260374e-05,0.00075626373,2.682209e-07,0.000120043755,1.3649464e-05
0.93888605,5.9604645e-08,0.00043165684,2.7418137e-06,6.997585e-05,0.00011745095,0.0071431696,5.6624413e-06,0.06903282,0.004095912
0.99620366,0.0,0.0001578927,1.4901161e-06,1.001358e-05,0.0008842051,0.0038348436,3.2782555e-05,0.000109136105,0.0001103282
0.9972038,0.0,3.129244e-05,6.2584877e-07,7.748604e-07,0.00043210387,0.0019640625,1.9997358e-05,0.00012379885,4.979968e-05
0.00024268031,0.0,0.0,0.0,7.748604e-07,0.0,0.0,0.0,0.0005886555,0.99877536
0.00024268031,0.0,0.0,0.0,7.748604e-07,0.0,0.0,0.0,0.0005886555,0.99877536
8.326769e-05,0.9539381,0.12908363,0.1383419,0.01889512,0.13574204,0.121485144,0.0002553463,0.01064983,0.008363128
0.0005784631,0.9336095,0.07100117,0.0050073266,0.0008995533,0.023886979,0.03819886,0.00022810698,0.03484726,0.011165112
0.0015749037,2.9802322e-08,0.009519607,0.00019773841,0.99950224,4.917383e-06,0.00406152,0.0,0.2665857,0.00014677644
0.99815583,0.0,2.849102e-05,4.172325e-07,1.1920929e-07,0.00015234947,0.0008508563,8.764863e-05,3.7133694e-05,1.1265278e-05
0.00034734607,7.867813e-06,8.609891e-05,0.0003940463,9.834766e-07,5.3286552e-05,0.016245902,3.963709e-06,0.996673,1.0371208e-05
0.9980141,0.0,2.18153e-05,1.66893e-06,2.0861626e-07,0.00039070845,0.002381593,5.1021576e-05,5.221367e-05,4.172325e-06
0.004315585,7.748604e-07,5.736947e-05,0.99906933,0.0009896457,1.6063452e-05,0.00050249696,0.00084865093,3.245473e-05,0.00032633543
0.00027421117,6.7949295e-05,0.95947003,0.023505569,0.83021873,0.0032765865,0.00308007,2.8908253e-06,0.938835,0.00011366606
0.0023982823,3.2782555e-07,0.49253255,1.7255545e-05,0.0011047125,0.00015705824,0.00029966235,0.0004812777,0.005961895,0.8280833
0.00024268031,0.0,0.0,0.0,7.748604e-07,0.0,0.0,0.0,0.0005886555,0.99877536
8.21352e-05,1.1026859e-05,0.0007892847,0.99959236,1.6957521e-05,1.1563301e-05,0.0010060072,8.034706e-05,9.089708e-06,5.9604645e-07
0.9960241,5.9604645e-08,0.00010704994,4.529953e-06,4.4703484e-07,0.0007658303,0.0014739633,0.00041636825,0.000128299,4.979968e-05
0.13082895,3.6358833e-06,0.00012382865,0.0012509227,1.9669533e-06,1.898408e-05,0.005366951,6.708503e-05,0.9655122,7.3581934e-05
0.9977357,0.0,2.4437904e-06,0.0,2.8312206e-06,8.970499e-06,0.0030765235,8.940697e-08,7.122755e-06,4.798174e-06
0.99865174,0.0,3.3974648e-06,1.1920929e-07,2.3841858e-07,3.20971e-05,0.0008819103,1.3709068e-06,1.5079975e-05,1.0728836e-06
0.000582248,3.8415194e-05,8.34465e-07,4.4107437e-06,3.4868717e-06,0.0015857816,0.98351306,5.990267e-06,0.000759542,0.0051867664
0.080326736,0.0003940165,0.0020643473,0.6006698,0.010835171,0.00040501356,0.01181832,6.809831e-05,0.7215469,0.000972718
0.007810235,3.5762787e-07,3.287196e-05,6.914139e-05,8.34465e-07,7.122755e-06,0.007056117,1.847744e-06,0.99237233,1.9788742e-05
0.9950582,0.0,3.7431717e-05,6.4074993e-06,4.7683716e-07,0.00021383166,0.001416713,0.00022089481,0.00036478043,0.00011989474
3.0577183e-05,0.036495388,0.008441687,0.9991296,2.3901463e-05,0.0006995797,0.0040693283,0.00041496754,0.5054162,4.6491623e-06
5.5909157e-05,0.124464214,0.0822863,0.99886334,0.07522765,0.012356579,0.04099828,3.257394e-05,0.39648333,2.4795532e-05
0.00013950467,0.022212356,0.98388004,0.66095376,0.054287612,0.0048856437,0.0011615157,0.00014218688,0.0025191903,2.4199486e-05
0.9893061,5.9604645e-08,0.0005443394,8.583069e-06,3.33786e-06,0.0006749034,0.001844585,0.00027036667,0.0016461015,0.00040569901
0.002213329,0.0,3.6150217e-05,0.00010022521,1.4603138e-06,2.4735928e-06,0.0019021928,1.1920929e-07,0.9960704,4.440546e-06
0.013434976,0.007586658,0.00011399388,0.0008639395,1.5825033e-05,0.0008994043,0.14327326,4.220009e-05,0.92889094,0.0028353035
0.0028137863,1.013279e-06,1.9133091e-05,0.00034597516,1.1116266e-05,1.14142895e-05,0.0074568987,9.834766e-07,0.9909367,6.240606e-05
0.9980501,0.0,5.6028366e-06,1.4901161e-07,1.2516975e-06,2.6017427e-05,0.0006054938,6.2584877e-07,9.387732e-06,5.364418e-06
5.7160854e-05,0.25706547,0.14521506,0.99694145,0.010298997,0.011099905,0.016094863,5.3226948e-05,0.63063186,1.5199184e-05
8.067489e-05,0.8193712,0.04417494,0.06420514,0.0027946234,0.050096363,0.12803897,3.6746264e-05,0.9368042,0.00057059526
0.6326031,0.0,2.8908253e-05,1.2755394e-05,5.4240227e-06,1.1920929e-06,0.0011076331,1.4901161e-07,0.80011547,9.089708e-06
0.9984176,0.0,2.503395e-06,8.940697e-08,1.7881393e-07,7.2717667e-06,0.0006708205,8.940697e-07,9.387732e-06,1.013279e-06
0.00013074279,1.14142895e-05,8.490682e-05,0.99769473,0.0012076795,8.285046e-06,0.00190413,1.7881393e-06,0.32264566,5.364418e-06
3.6925077e-05,0.00012281537,0.009937584,0.9980413,0.058882684,0.00030627847,0.0036209226,1.180172e-05,0.013671905,3.322959e-05
0.000721097,0.8865853,0.014546901,0.0014936328,0.004376501,0.017036468,0.276069,5.8323145e-05,0.01123783,0.013415337
0.00036767125,1.1920929e-07,0.0013912618,0.000102996826,2.9802322e-07,1.4811754e-05,0.0002502203,5.990267e-06,0.9987603,7.748604e-07
0.00086545944,0.62625825,0.0016061366,0.012616843,0.000106960535,0.013754964,0.28969985,0.0006839931,0.7605275,0.020919383
0.00033137202,0.8828133,0.09529692,0.00060617924,0.00047382712,0.007902652,0.015243828,0.00021362305,0.017341256,0.03150341
0.99805915,0.0,3.1292439e-06,2.9802322e-07,1.2218952e-06,2.3335218e-05,0.0007286966,6.2584877e-07,0.00018647313,5.632639e-06
0.00024268031,0.0,0.0,0.0,7.748604e-07,0.0,0.0,0.0,0.0005886555,0.99877536
0.5769906,0.0,0.0010241568,6.854534e-07,0.007845283,8.46386e-06,0.0006117523,1.7881393e-07,0.005707532,0.64917696
0.0020165443,8.940697e-08,7.787347e-05,0.00013375282,1.7881393e-07,7.599592e-06,0.0021583438,2.7418137e-06,0.99696076,2.2053719e-06
0.000503242,0.0,6.2584877e-07,0.0,4.142523e-06,0.0,1.4901161e-07,0.0,0.0004735589,0.99820626
0.99890244,0.0,1.4305115e-06,0.0,1.4901161e-07,1.6242266e-05,0.0018932819,2.682209e-07,1.8268824e-05,1.7881393e-06
0.99797535,0.0,6.3180923e-06,2.9802322e-08,1.66893e-06,3.066659e-05,0.0010844767,7.4505806e-07,4.7683716e-06,5.4836273e-06
0.0018772483,2.9802322e-08,6.9350004e-05,0.00028398633,2.6226044e-06,4.4703484e-06,0.0020569265,5.364418e-07,0.9961512,6.556511e-06
0.00033181906,0.6056323,0.3527341,0.0018040836,0.012405992,0.016043305,0.021322697,3.066659e-05,0.004607022,0.0063163936
0.0031601787,0.0,0.00013554096,0.00017255545,9.030104e-06,5.841255e-06,0.0020633638,7.748604e-07,0.99448836,2.2828579e-05
5.9902668e-05,0.0036075711,0.117142916,0.007033944,0.027862579,0.9945396,0.06821111,0.003399849,0.35229635,0.004009366
2.670288e-05,0.00019970536,0.034869105,0.000772655,0.0012913644,0.99921644,0.01975879,0.00072571635,0.34322128,0.00027823448
0.0019789636,2.9802322e-08,8.073449e-05,0.0002889037,1.0192394e-05,7.8082085e-06,0.0029962063,2.3841858e-07,0.9952494,7.4505806e-06
0.99531543,0.0,0.00012612343,4.4703484e-07,1.9669533e-06,0.00012466311,0.0011307001,2.4735928e-05,0.00010329485,0.00014561415
0.025425255,5.275011e-05,0.9871989,0.0004298389,0.010499805,0.00020959973,0.00040978193,0.00063601136,0.00019967556,0.002868265
0.99908775,0.0,1.013279e-06,0.0,1.4901161e-07,1.32620335e-05,0.0020305216,2.3841858e-07,1.6868114e-05,8.6426735e-07
0.9732952,2.9802322e-07,5.352497e-05,0.0003528297,1.4901161e-06,0.00024214387,0.0028838515,0.00026717782,0.026399702,0.00011384487
0.000143677,0.8989855,0.004020959,0.0066210628,3.07858e-05,0.008489549,0.06659603,0.0003219843,0.9250895,0.008770466
3.2544136e-05,2.3841858e-06,4.708767e-05,0.9998679,0.00042626262,6.2286854e-06,0.0005951226,1.8179417e-06,0.00076183677,2.0861626e-07
0.00011771917,0.023549497,0.8566984,0.53290725,0.0038643777,0.0022115707,0.0070581734,0.000108003616,0.9839113,5.6892633e-05
0.99857116,0.0,1.9073486e-06,0.0,7.4505806e-07,7.0929527e-06,0.0005052686,5.9604645e-08,6.2584877e-06,2.8908253e-06
0.035116613,3.2782555e-07,0.0022991896,7.3611736e-06,7.677078e-05,0.9386613,0.15025562,0.00046432018,0.00016367435,0.0014838874
0.99733144,0.0,3.027916e-05,1.4007092e-06,2.0861626e-07,0.00019198656,0.0009455681,7.250905e-05,4.813075e-05,2.0474195e-05
3.632903e-05,0.0002220273,0.03964147,0.002644837,0.0020488799,0.99660224,0.027640969,0.0016857684,0.8711082,0.0004055202
0.0006482899,1.1622906e-06,5.555153e-05,0.99914694,0.018613517,2.6136637e-05,0.0014082491,6.556511e-06,0.0003091693,5.2660704e-05
4.9054623e-05,0.6642459,0.14927006,0.99187386,0.00049722195,0.012966007,0.058197916,0.0026038885,0.80583054,5.325675e-05
0.00073090196,1.5199184e-06,0.0044550896,0.0001976788,0.00030371547,0.9989873,0.044572234,0.0014543831,0.0013993084,8.162856e-05
0.015374213,0.0,3.9190054e-05,0.00045633316,4.887581e-06,3.606081e-06,0.0011778772,1.1026859e-06,0.9866265,5.9604645e-06
0.29094726,0.0,6.67572e-06,7.4505806e-06,3.784895e-06,5.662441e-07,0.00071033835,5.9604645e-08,0.8820175,2.1904707e-05
0.09435448,2.3305416e-05,0.14147073,0.0022509992,0.5097829,0.002143234,0.023905247,3.0219555e-05,0.6542981,0.013881326
0.0027124286,1.31726265e-05,0.016395956,0.0007676482,1.8775463e-06,7.7813864e-05,0.0012253821,0.00052934885,0.99359596,6.7293644e-05
0.99171853,0.0,6.28531e-05,1.4901161e-07,3.6358833e-06,0.0010123551,0.0052227974,4.5210123e-05,0.00010877848,0.00047534704
0.87033415,4.261732e-06,0.0037720203,3.3825636e-05,0.005124867,0.57746935,0.020305991,0.00016829371,0.00014799833,0.00014951825
0.9758396,3.5762787e-07,0.00084498525,1.1652708e-05,4.708767e-06,0.0005414784,0.0018066764,0.0010421872,0.0016773045,0.008234352
0.9980509,0.0,7.95722e-06,1.1920929e-07,1.7285347e-06,3.7938356e-05,0.00057423115,1.0728836e-06,2.1159649e-05,2.7507544e-05
0.0017726123,8.940697e-08,0.005477071,0.00026902556,4.2825937e-05,2.1964312e-05,0.0030267835,1.4007092e-06,0.99367535,1.731515e-05
0.00028169155,0.9524807,0.0013824701,0.002416879,2.2649765e-06,0.0016659796,0.072386056,0.0006210208,0.7589954,0.019258589
9.4503164e-05,8.5145235e-05,0.8936394,0.84531367,0.9635414,0.0009390116,0.0017662644,8.046627e-07,0.0053352714,1.4871359e-05
0.0002552271,0.9668456,0.017086416,0.0022625327,8.431077e-05,0.009622365,0.05254692,0.00026625395,0.02474317,0.008931339
0.99888766,0.0,4.6789646e-06,8.940697e-08,1.4901161e-07,0.000107795,0.0014641583,2.503395e-06,1.4156103e-05,2.7120113e-06
0.0025063753,0.00015887618,0.017068356,0.0008932948,0.0023418665,0.0005607009,0.050604165,2.4139881e-05,0.96752656,0.005579412
0.023171395,0.0,4.1037798e-05,6.854534e-07,6.1690807e-06,1.9967556e-06,0.0024103224,2.9802322e-08,0.97076964,3.7670135e-05
0.0007519126,0.00028258562,2.1755695e-06,7.5101852e-06,6.8336725e-05,0.0006143451,0.98203254,1.6391277e-06,0.00024864078,0.009882987
0.04486981,8.940697e-08,5.7399273e-05,0.00010994077,2.3245811e-06,1.937151e-06,0.001306951,5.6028366e-06,0.97797775,6.875396e-05
0.029425055,0.00013971329,0.50664514,0.00018575788,0.00403893,0.0002309084,0.0026761591,0.0045185983,0.016128033,0.46334538
0.99815786,0.0,2.3037195e-05,3.2782555e-07,3.2782555e-07,0.0001603961,0.001080513,2.2649765e-05,2.4825335e-05,1.6659498e-05
0.98319364,0.0,9.247661e-05,3.5762787e-07,0.00034341216,3.5345554e-05,0.0011107624,3.874302e-07,0.0023378432,0.013004452
0.0040240586,1.7404556e-05,0.9644991,0.00043833256,0.49160302,0.00026094913,0.0012471974,4.3809414e-06,0.00023543835,0.00020188093
9.384751e-05,0.073530644,0.0005399287,0.9990146,0.034791976,0.008696258,0.7424007,0.0009904802,0.00015345216,0.0019340217
0.9965372,0.0,6.106496e-05,1.1026859e-06,7.212162e-06,0.00050100684,0.0012039542,1.3947487e-05,4.0888786e-05,7.215142e-05
0.9654161,2.682209e-07,0.002808243,8.136034e-06,3.3080578e-06,0.00026908517,0.00095003843,0.0030305684,0.0011500716,0.0068441927
0.00023034215,5.605817e-05,0.014242679,0.0031181872,0.0051414967,0.99896145,0.051496983,0.00049573183,0.0018730462,8.34167e-05
0.19806746,5.662441e-07,0.003867954,3.6656857e-06,0.0024724305,8.374453e-06,0.00069093704,2.592802e-06,0.00081062317,0.90988123
