0,1,2,3,4,5,6,7,8,9
0.99114645,1.1920929e-07,9.834766e-07,1.4901161e-06,1.4901161e-07,4.6879053e-05,0.00018277764,1.9669533e-06,9.742379e-05,0.0030910373
0.97395253,0.0,7.7188015e-06,1.1056662e-05,1.4901161e-07,0.00026968122,0.00010752678,0.0024555027,3.0249357e-05,0.0009978712
0.0014956295,3.501773e-05,0.00040900707,0.015097797,0.8667293,0.86414254,0.07227057,1.9192696e-05,0.000119924545,0.0009212792
0.0002863109,0.0005390942,6.7949295e-06,0.9988867,0.00017237663,0.0009597838,0.47128928,2.7418137e-06,0.0020909607,0.012562543
6.6012144e-05,1.1920929e-07,2.9802322e-08,0.9986675,1.1920929e-07,0.00020158291,0.0025292337,2.9802322e-08,0.0007201433,0.0001154542
0.992313,0.0,6.2584877e-07,1.3411045e-06,0.0,0.0002629757,0.00019940734,0.0001231134,6.7055225e-06,4.8696995e-05
0.014943451,1.1920929e-07,2.0861626e-07,9.664893e-05,5.9604645e-08,1.23381615e-05,0.001291126,4.887581e-06,0.96655893,0.0034072995
9.357929e-06,1.7881393e-07,0.00011649728,0.99965274,0.8994429,0.00026091933,0.002678007,7.95722e-06,0.0015963316,1.6510487e-05
2.2649765e-06,4.7296286e-05,4.413724e-05,0.6982782,4.4703484e-06,6.5118074e-05,0.013871431,8.940697e-08,0.9953954,2.0861626e-05
7.328391e-05,0.0009291172,6.785989e-05,0.0004184842,1.1920929e-06,0.002463311,0.98734987,4.6283007e-05,0.022891551,0.0003632605
0.0017112494,9.0539455e-05,0.9739572,0.0005938113,0.0012783706,0.00019058585,0.0017389655,0.031882286,0.6850934,0.00015187263
0.0007931292,0.0,2.4914742e-05,1.5109777e-05,1.3113022e-06,1.0609627e-05,0.00028192997,0.00018563867,0.99123085,8.699298e-05
7.1823597e-06,0.95893383,0.0016422272,0.93166125,2.4527311e-05,0.00046870112,0.005339563,0.0,0.60527843,0.009220123
0.0003964007,0.6519139,0.050575525,6.5237284e-05,0.00093606114,0.00038695335,0.00038409233,1.8775463e-06,0.028679907,0.54260224
0.06164998,0.0,2.169609e-05,3.233552e-05,2.9802322e-08,5.7816505e-06,0.0008738339,9.202957e-05,0.9492518,8.225441e-06
8.5026026e-05,0.7974528,0.001106292,6.854534e-06,1.5377998e-05,5.1110983e-05,0.0030336678,5.662441e-07,0.3601745,0.105394244
2.413988e-06,0.0,0.0001243949,0.99960595,0.0002784729,6.556511e-07,0.00057286024,2.0861626e-07,0.52995247,8.34465e-07
0.99186826,0.0,8.940697e-08,4.172325e-06,4.7683716e-07,4.4196844e-05,0.00036731362,1.0430813e-06,3.6150217e-05,0.0015239716
0.00011456013,0.015515536,0.081930876,0.026241183,0.33605927,0.04477167,0.8966849,0.030350953,0.6779554,0.014823586
0.000121831894,9.1314316e-05,0.00056162477,0.0025137663,0.00073072314,0.0011202991,0.87171954,0.0019265711,0.92907286,0.0019509792
0.986379,0.0,4.7385693e-06,1.1503696e-05,6.854534e-07,0.00039762259,0.00019273162,0.00019943714,3.758073e-05,0.00039950013
0.04160443,0.00012391806,0.9609467,0.18216944,5.5372715e-05,0.0012395382,0.00087448955,0.0011203587,0.0020846725,0.0011923909
0.9958179,0.0,8.6426735e-07,2.092123e-05,1.1920929e-07,0.00016608834,0.00017249584,1.6629696e-05,3.8683414e-05,0.00048598647
0.0030520558,0.0644584,0.0017002523,0.003306359,3.2484531e-06,0.0006621778,0.013592452,1.090765e-05,0.9566461,0.0061225593
0.003521055,1.1920929e-07,4.079938e-05,0.0001874268,1.3321638e-05,2.041459e-05,0.001100421,0.00013014674,0.98241115,0.0003052354
3.516674e-05,0.029156297,0.055171728,0.04886815,0.0008253157,0.99136364,0.0063407123,0.00029489398,0.04526344,0.01370281
0.06880927,0.003941536,0.006612569,0.0003684759,1.0728836e-06,0.0018585622,0.48757827,0.012807071,0.0009396374,0.0016415119
0.9746822,0.0,3.054738e-05,3.0696392e-06,2.0861626e-07,0.0003900528,0.00016728044,0.006527245,6.175041e-05,0.005269587
0.13676867,0.0,0.0019036531,4.6283007e-05,1.9013882e-05,7.5399876e-05,0.00045362115,0.875396,0.014011323,0.0017410517
6.0796738e-06,0.98276556,0.00683704,0.13900685,4.3213367e-06,0.00025177002,0.005212754,0.0,0.95340574,0.009005457
0.00023216009,0.00029680133,1.0371208e-05,0.00016963482,1.7881393e-07,0.0006966889,0.9944243,9.894371e-06,0.0010238588,0.00010022521
3.4481287e-05,0.0010408163,4.1007996e-05,0.000554055,4.053116e-06,0.001949966,0.99162054,2.3245811e-05,0.014762193,0.00030988455
0.008251369,0.00024545193,1.1146069e-05,0.00024169683,4.172325e-07,0.0010786653,0.9679484,3.874302e-06,6.67274e-05,0.00011560321
4.926324e-05,0.0,6.136298e-05,0.99924904,0.0036445558,5.1409006e-05,0.00075033307,4.1127205e-06,0.00011488795,1.8686056e-05
0.8638507,4.7683716e-07,1.0818243e-05,9.834766e-06,2.503395e-06,0.00011572242,0.0011806488,7.274747e-05,0.086658895,0.0054178834
0.9970345,0.0,1.1920929e-07,3.993511e-06,2.9802322e-08,0.00017544627,0.0002682805,4.4703484e-06,7.5399876e-06,0.00024569035
0.8685323,1.4901161e-06,8.225441e-06,9.769201e-05,1.7881393e-07,5.0634146e-05,0.0012686551,3.2484531e-06,0.17665753,0.00073993206
0.9950911,2.9802322e-08,7.748604e-07,1.680851e-05,2.9802322e-08,5.8084726e-05,0.0001346767,3.9041042e-06,0.00010854006,0.0008918047
0.9967574,0.0,6.2584877e-07,1.2129545e-05,5.9604645e-08,0.000115424395,0.00021928549,8.076429e-06,9.7841024e-05,0.00021255016
0.0017552078,2.9802322e-08,2.2381544e-05,0.00020220876,2.3841858e-07,8.583069e-06,0.00045132637,6.9737434e-05,0.9925221,4.4196844e-05
0.0022169054,0.00013172626,0.93906903,0.0075642765,0.008480877,0.00021523237,0.0021652877,0.04907897,0.6868048,0.0012571514
0.9730488,2.9802322e-08,2.9802322e-07,6.136298e-05,1.1920929e-07,5.236268e-05,0.0011336207,3.2782555e-07,0.009495765,8.368492e-05
3.656745e-05,0.0006964505,0.0026621222,3.6358833e-05,3.618002e-05,0.9763634,0.0845758,0.00017768145,0.12109649,0.00024464726
4.2527914e-05,0.9416057,0.015893728,0.0123799145,6.094575e-05,0.0018903017,0.008640438,1.7881393e-06,0.89705104,0.032269657
0.0007362962,5.9604645e-08,1.2278557e-05,0.00011947751,1.0728836e-06,1.7672777e-05,0.0010609329,2.1398067e-05,0.9865487,0.0006862879
0.0023889244,0.0,4.172325e-05,1.3232231e-05,3.5762787e-07,1.2636185e-05,6.2167645e-05,0.9877175,0.0005466044,0.00010061264
0.086389154,5.364418e-07,0.00010994077,3.8266182e-05,4.246831e-05,2.5749207e-05,0.001593113,0.00019532442,0.84940743,0.0019000471
0.0043035746,2.5331974e-06,0.0017563403,0.0035434067,0.00034368038,5.0395727e-05,0.010458529,0.00038820505,0.97373843,0.0005348623
3.489852e-05,0.9318917,0.028095424,1.1473894e-05,7.033348e-05,0.00063470006,0.0011721253,3.5762787e-07,0.19939688,0.09287095
0.99597263,0.0,0.0,1.758337e-06,1.1920929e-07,3.5196543e-05,0.00024580956,7.1525574e-07,1.0550022e-05,0.00044101477
0.0009061992,0.0141944885,0.023281515,0.00040256977,2.0563602e-05,0.9824959,0.04405728,0.00051549077,0.0027211905,0.0014157295
0.00035327673,0.8112378,0.09789014,3.7550926e-06,0.00011560321,0.00036653876,0.0053411126,5.096197e-06,0.0128822625,0.081391454
1.6331673e-05,0.014938533,0.017196834,0.0030592978,0.00039374828,0.9951412,0.022754937,0.00054195523,0.68497515,0.0006894767
0.027025133,0.0,0.00013458729,5.3942204e-06,4.7683716e-07,1.5169382e-05,0.0007856786,0.023657888,0.9463866,0.0006085932
0.95974493,3.0994415e-06,5.90086e-06,1.3202429e-05,1.5795231e-06,4.068017e-05,0.00035244226,7.033348e-06,0.005628854,0.017342865
2.4616718e-05,0.9606316,0.034897655,4.851818e-05,3.0428171e-05,0.0004943907,0.00436303,2.0861626e-07,0.25290486,0.016412914
0.873037,1.9967556e-06,4.9471855e-06,2.115965e-06,3.5762787e-07,2.3275614e-05,0.00038209558,4.4614077e-05,0.10131484,0.048562497
1.3738871e-05,0.9419029,0.021046102,1.4603138e-06,9.208918e-06,0.0006748438,0.0122306645,1.4603138e-06,0.0077244043,0.038830906
0.98336273,0.0,7.891655e-05,0.00013077259,2.3841858e-07,0.00028267503,0.0006361306,0.00067183375,0.002865851,9.781122e-05
0.0001321435,0.70033944,0.0061664283,5.662441e-07,2.7537346e-05,4.8547983e-05,0.00075158477,3.5762787e-07,0.0074229836,0.57567495
0.99831355,0.0,6.2584877e-07,5.7816505e-06,0.0,5.4240227e-05,0.00013014674,1.0669231e-05,2.5779009e-05,0.000119030476
0.00012865663,7.2836876e-05,0.00018459558,0.00010114908,6.6161156e-06,0.9865279,0.026492745,1.0550022e-05,0.07919714,4.9740076e-05
0.00020676851,2.0354986e-05,0.00026008487,0.0063505173,0.85557324,0.8791338,0.046035945,5.751848e-06,0.0001489222,0.00040364265
0.0020835698,0.00010174513,1.013279e-05,0.0,0.0011125505,8.970499e-06,0.00014197826,0.00019341707,0.18437952,0.9095173
0.116356224,0.0004118979,1.874566e-05,4.3600798e-05,2.8431416e-05,0.00014957786,0.017124534,1.4424324e-05,0.69643676,0.04525891
0.9855123,2.9802322e-08,2.3543835e-05,1.475215e-05,1.4901161e-07,0.0003131628,0.00013750792,0.00066661835,0.00012898445,0.0014505982
0.99388796,0.0,4.172325e-07,4.5895576e-06,8.940697e-08,0.00020182133,0.00019723177,8.1688166e-05,3.0875206e-05,5.8591366e-05
0.00018641353,0.00010120869,0.011425197,0.00074124336,0.009585321,0.00013449788,0.0014573038,0.00011897087,0.9644095,0.0060704052
0.0026006699,2.9802322e-07,0.011737376,1.1861324e-05,3.1918287e-05,0.00013676286,0.0028992593,0.5719607,0.73556656,0.0028670132
0.0050899684,0.0,1.180172e-05,1.847744e-05,1.1920929e-07,1.2010336e-05,3.5315752e-05,0.97667,1.2665987e-05,8.869171e-05
0.012362242,2.0861626e-07,3.695488e-06,0.0002578795,6.854534e-07,1.2487173e-05,0.001147598,7.95722e-06,0.96075803,0.0004621446
0.99303126,0.0,7.1525574e-07,7.867813e-06,1.4901161e-07,0.00022125244,0.0002450347,1.1265278e-05,8.803606e-05,0.00027403235
0.0002182424,1.1920929e-07,1.3440847e-05,0.99918294,2.5719404e-05,3.3974648e-05,0.0020193756,2.0861626e-07,0.0017056465,4.2378902e-05
0.00026750565,5.9604645e-08,2.1457672e-06,0.99866617,7.033348e-06,7.1942806e-05,0.0026084483,1.1920929e-07,0.00022056699,0.00010073185
9.4771385e-05,0.0,4.4703484e-07,0.99910665,7.987022e-06,9.980798e-05,0.0025389493,1.1920929e-07,0.00024864078,6.66976e-05
0.0031714737,9.834766e-07,5.751848e-06,6.5654516e-05,3.5762787e-06,0.00014206767,0.0026655793,9.7841024e-05,0.96949196,0.009413153
0.51758903,0.0,0.00019297004,1.0758638e-05,1.5795231e-06,0.00014922023,0.00015375018,0.57549757,0.000736624,0.0017210245
0.94687796,4.7683716e-07,3.129244e-05,1.937151e-05,2.2649765e-06,0.00052288175,0.00047394633,0.0015055537,0.0003130734,0.029273272
0.49760947,0.0,0.00014615059,1.5258789e-05,8.940697e-08,1.347065e-05,0.0015844405,0.013151646,0.64111805,2.1159649e-05
0.2593587,0.0,0.00015425682,0.083532035,8.940697e-08,0.00012713671,0.00016522408,0.0005430579,0.006546259,0.0003516078
0.9865073,2.0861626e-07,5.751848e-06,5.811453e-06,1.1920929e-07,8.493662e-05,0.00018107891,3.7521124e-05,0.0008918941,0.0033693314
0.02137658,1.7881393e-07,2.861023e-06,9.23872e-07,0.99758995,0.00015074015,0.01482594,4.6879053e-05,0.00014224648,0.00383842
0.99438655,0.0,2.092123e-05,3.257394e-05,0.0,0.00021156669,0.00014671683,0.000264436,0.00017142296,0.00011253357
0.9983338,0.0,2.9802322e-07,3.4570694e-06,0.0,0.00011408329,0.00013816357,8.881092e-06,1.40070915e-05,6.470084e-05
0.00025817752,2.682209e-07,0.0003568232,0.00053980947,0.00023183227,3.2007694e-05,0.000797838,0.000130862,0.99105406,0.0001912415
0.99302447,0.0,3.3974648e-06,1.0222197e-05,2.0861626e-07,0.0004517436,0.0002847314,8.529425e-05,2.142787e-05,0.00061252713
3.07858e-05,0.00017040968,0.0009368956,7.05421e-05,8.85725e-05,0.872921,0.08091685,0.00025093555,0.95696557,0.00011751056
8.21054e-05,6.2584877e-06,2.3245811e-06,0.0,8.046627e-06,2.3841858e-07,8.940697e-08,8.940697e-08,0.0007892549,0.998766
4.479289e-05,4.172325e-07,6.7055225e-06,0.9992269,6.4730644e-05,6.347895e-05,0.001755774,8.940697e-08,0.0041439533,5.0127506e-05
8.59499e-05,0.911124,0.07118544,0.008687556,0.006945044,0.00079098344,0.0030719936,2.026558e-06,0.5152382,0.140647
0.0092562735,2.0861626e-07,0.00013688207,0.00012594461,3.194809e-05,0.00010249019,0.0024397373,0.00069239736,0.96321154,0.0011503994
0.9877551,5.9604645e-08,2.0861626e-07,3.2484531e-06,2.9802322e-08,2.6136637e-05,0.00022369623,1.0639429e-05,0.00121966,0.0018221438
2.938509e-05,2.503395e-06,2.0861626e-07,0.0,8.6426735e-07,0.0,0.0,0.0,0.000962317,0.99944067
0.9531142,0.0,8.273125e-05,1.3202429e-05,1.7881393e-07,0.00021523237,0.00019779801,0.044414967,0.0010540783,0.0013068616
1.0550022e-05,0.06866205,0.13350642,0.013764888,0.00024738908,0.99758613,0.0071860254,0.00022625923,0.09759322,0.002790898
0.559205,2.682209e-07,5.662441e-07,0.00010046363,8.940697e-08,2.2053719e-05,0.0007970929,8.34465e-07,0.33064732,0.00092190504
9.161234e-05,0.00013905764,0.7712407,0.01506865,0.0018407106,0.0002578795,0.0016605258,0.001036495,0.9651859,7.390976e-05
0.6327298,3.5762787e-07,0.0003118515,9.2446804e-05,2.8580427e-05,0.0019936562,0.0007081926,0.17601964,0.0011417866,0.103713304
0.0008071959,0.004865736,1.1950731e-05,0.9971234,5.8621168e-05,0.00034856796,0.6325371,2.3841858e-06,0.06542593,0.008665323
0.0004798472,7.95722e-06,1.0311604e-05,2.9802322e-08,4.5597553e-05,1.4305115e-06,2.0861626e-06,1.5735626e-05,0.0032537878,0.9942157
0.97038186,1.1920929e-07,6.54757e-05,3.3318996e-05,1.013279e-06,0.00031885505,0.0002670288,0.00025203824,0.0011601746,0.0014998019
0.98788995,0.0,3.2484531e-06,7.468462e-05,6.854534e-07,0.00036752224,0.0004995465,1.4960766e-05,0.00061416626,0.00027117133
0.00011217594,1.847744e-06,0.001930654,0.0020558834,0.06520656,7.763505e-05,0.0030092597,0.00013896823,0.985221,0.00035217404
0.007666707,0.0023929477,9.512901e-05,9.804964e-06,0.0029280186,2.2917986e-05,0.00028082728,3.4838915e-05,0.2670632,0.91154265
0.9974264,0.0,1.1920929e-07,1.013279e-06,2.9802322e-08,0.00010487437,0.00013548136,5.4836273e-06,3.963709e-06,0.00043979287
0.000112593174,0.9259504,0.04204893,0.9486396,0.0035154521,0.09157401,0.14029467,1.1920929e-07,0.8156605,0.0007841289
0.00010576844,4.5001507e-06,0.0003398955,1.3500452e-05,3.7550926e-06,0.98870623,0.010381877,0.00040531158,0.00054597855,0.00036251545
3.3050776e-05,9.2834234e-05,0.102122486,0.9987011,0.014035881,3.7044287e-05,0.0025752783,1.1920929e-06,0.49700135,1.2010336e-05
0.9219247,5.3048134e-06,4.887581e-06,1.2606382e-05,8.34465e-07,2.5779009e-05,0.00039878488,4.440546e-06,0.026673347,0.020779103
7.426739e-05,8.940697e-08,5.364418e-07,0.9998109,3.6656857e-06,4.0352345e-05,0.0038541853,8.940697e-08,0.0003040135,1.4841557e-05
0.9402818,0.0,8.1926584e-05,6.9737434e-06,9.834766e-07,0.00018674135,0.00019031763,0.00833565,0.0014562607,0.0019222498
0.00026625395,1.847744e-06,0.00037536025,0.9820384,0.9865646,0.0048470497,0.008322746,1.5705824e-05,0.0005249679,8.3208084e-05
2.2739172e-05,0.9421482,0.0013205409,0.3042408,4.8577785e-06,0.00048020482,0.010091931,0.0,0.92881596,0.018006742
0.9896102,8.940697e-08,1.1920929e-07,7.599592e-06,2.9802322e-07,2.7567148e-05,0.00029489398,7.4505806e-07,0.00014963746,0.0022763312
1.2397766e-05,0.0015656948,0.9732542,0.039085627,0.00019517541,6.622076e-05,0.0007402003,3.963709e-06,0.8040527,7.987022e-06
0.86791825,7.548928e-05,0.0004439354,4.172325e-06,7.57575e-05,6.774068e-05,0.00012898445,3.9190054e-05,0.0017507076,0.15008122
0.00018674135,0.00017774105,0.001649797,0.00020498037,0.00026732683,0.7988049,0.11396283,0.0013113022,0.9379473,0.00047925115
2.4527311e-05,0.0016281605,0.0062063932,0.00532642,0.043624252,0.97555494,0.041341275,1.2516975e-06,0.0014278293,0.00019007921
0.0001553595,8.043647e-05,0.0002452731,0.99952304,0.0003591478,0.00058063865,0.012889624,4.172325e-07,0.001241535,0.00036761165
0.00021764636,0.0,1.6480684e-05,1.3381243e-05,2.8908253e-06,4.5597553e-06,0.0005133748,0.99738276,0.00012728572,9.6678734e-05
0.97826785,5.364418e-07,8.821487e-06,1.2397766e-05,1.4901161e-07,0.0001746118,0.00037831068,3.027916e-05,0.0024074912,0.0049791634
0.9936859,0.0,9.23872e-07,6.109476e-06,2.9802322e-08,0.00014418364,0.00019067526,1.9162893e-05,0.00013127923,0.00024831295
0.99822736,0.0,9.23872e-07,1.6957521e-05,0.0,8.240342e-05,0.00013586879,5.990267e-06,5.7458878e-05,0.00015860796
0.073535174,1.7881393e-07,2.3245811e-06,9.23872e-05,7.5399876e-06,1.1593103e-05,0.0012413859,2.2500753e-05,0.8802449,0.003074646
0.80104375,9.587407e-05,4.2051077e-05,0.00015306473,2.5093555e-05,6.496906e-05,0.00096562505,8.404255e-06,0.062855095,0.038697988
0.00037309527,4.6491623e-06,1.3291836e-05,0.0,7.849932e-05,7.748604e-07,4.4703484e-07,2.2649765e-06,0.00035497546,0.9977455
0.00018280745,0.1723097,0.0006955266,0.0009786785,0.00019136071,3.46601e-05,0.00017470121,3.5762787e-07,0.43429917,0.7435267
0.00020757318,0.2676888,0.08151296,0.0013006926,0.027579963,0.002113223,0.03323704,2.9444695e-05,0.0052187145,0.4989693
0.008231372,1.7285347e-06,6.386638e-05,0.0007980764,3.8951635e-05,9.778142e-05,0.004097134,3.3468008e-05,0.968166,0.00046387315
0.96774364,7.1525574e-07,1.0758638e-05,5.2332878e-05,1.2218952e-06,0.00020551682,0.0004068613,3.1888485e-05,0.0017909706,0.007365942
1.3113022e-06,0.98484135,0.026473582,4.172325e-07,4.7385693e-06,0.003325224,0.0026399195,2.0861626e-07,0.19974196,0.0072420537
0.03601879,3.0696392e-06,1.2785196e-05,0.00038442016,6.8843365e-06,0.000106334686,0.0048088133,6.0796738e-05,0.92944336,0.005120605
0.00048312545,0.00013712049,1.2636185e-05,0.00039595366,1.66893e-06,0.00050514936,0.98793554,6.467104e-06,0.00046873093,0.00022447109
0.8471706,9.834766e-07,9.536743e-07,2.2470951e-05,5.9604645e-08,1.3768673e-05,0.0005747378,1.7881393e-06,0.16323918,0.005685568
1.719594e-05,0.9620296,0.021527797,0.9347465,0.00030490756,0.0014476478,0.008791566,0.0,0.22095263,0.009576291
0.00012281537,3.5762787e-07,0.00021132827,0.99428594,0.070965916,0.0017651021,0.001970321,2.1547079e-05,0.00017562509,0.00065511465
0.0821051,0.00012037158,0.00020635128,0.8235799,0.0017170012,0.0014664233,0.0038683116,2.682209e-06,0.012048155,0.0036058724
0.26427597,5.00679e-06,3.9041042e-06,7.927418e-06,6.2584877e-07,4.938245e-05,0.003132224,1.6897917e-05,0.6412266,0.010746896
0.060233682,0.00022283196,0.1848335,0.000659734,2.8908253e-05,0.0003812313,0.005455494,0.0028247535,0.827451,0.00015860796
3.889203e-05,0.0,0.008058906,8.6694956e-05,0.00073724985,3.927946e-05,0.0007022917,0.011215389,0.9981226,6.0796738e-06
0.039809078,0.0,1.6361475e-05,8.46982e-05,2.0861626e-07,8.136034e-06,0.0016396046,2.0802021e-05,0.9631007,1.6599894e-05
0.9680716,0.0,1.0699034e-05,3.4213066e-05,2.9802322e-08,0.00017413497,0.00035214424,0.00010856986,0.0041865706,0.000657022
0.9459727,1.0251999e-05,2.6673079e-05,2.7120113e-06,3.6358833e-06,4.196167e-05,0.00040528178,6.3478947e-06,0.0037852526,0.02358228
0.99777025,0.0,8.940697e-08,5.066395e-06,0.0,4.082918e-05,0.00011152029,2.115965e-06,1.2755394e-05,0.00031381845
0.00051394105,3.5762787e-07,1.1622906e-06,0.99941695,1.347065e-05,0.00015693903,0.009096652,1.7881393e-07,0.00020682812,0.00014472008
0.017731309,8.6426735e-07,4.23193e-06,4.929304e-05,5.364418e-07,5.5730343e-05,0.0021422207,4.4554472e-05,0.9662807,0.0051496923
0.8753977,2.9802322e-08,0.00018939376,9.864569e-06,4.529953e-06,0.00026986003,0.00025075674,0.03053394,0.004281312,0.0081734955
0.9934881,5.9604645e-08,2.771616e-06,2.1129847e-05,1.4901161e-07,0.0003117919,0.00026914477,2.7894974e-05,5.468726e-05,0.0006555319
0.010340273,8.046627e-07,3.3169985e-05,0.00019335747,1.296401e-05,0.00010406971,0.0031394064,8.0794096e-05,0.95665294,0.001647085
0.9935245,0.0,2.3841858e-07,2.3841858e-06,2.9802322e-08,4.5120716e-05,0.00016885996,2.4437904e-06,0.0001308024,0.0004581213
0.39352283,1.0341406e-05,1.180172e-05,9.4771385e-06,7.31051e-05,4.196167e-05,0.0032761693,2.3752451e-05,0.39979327,0.034550697
0.00020611286,0.4571993,0.09055179,3.2782555e-07,0.0017281771,0.00037389994,0.005048901,1.8566847e-05,0.0019640326,0.55453944
0.0027344525,0.0006789565,0.00018247962,0.0005199611,9.536743e-07,0.002228111,0.9718735,9.1671944e-05,0.0016251802,0.0005607307
9.638071e-05,0.008539647,0.008498728,0.007932723,0.0008445084,0.98422354,0.054012418,4.452467e-05,0.44941503,0.00026354194
0.00087043643,1.6391277e-06,0.00021246076,0.0112371445,7.2717667e-06,3.6120415e-05,0.008574039,1.4156103e-05,0.991673,8.6694956e-05
0.2682069,1.9282103e-05,2.4855137e-05,3.5762787e-07,0.00012758374,2.849102e-05,4.6253204e-05,4.595518e-05,0.0008738637,0.80525404
9.638071e-05,0.0,0.065843046,0.0005222261,0.047611296,2.2262335e-05,0.004899472,0.17614403,0.9966358,2.5331974e-06
7.477403e-05,0.9491842,0.016120166,0.00017952919,1.1175871e-05,0.00042071939,0.0008162856,2.0861626e-07,0.25419402,0.10416561
2.4467707e-05,2.3841858e-07,1.975894e-05,0.99930626,0.0024434626,6.699562e-05,0.002519846,8.046627e-07,0.0044273436,7.2956085e-05
0.99831074,0.0,5.9604645e-07,1.1712313e-05,0.0,0.00022262335,0.00016182661,2.4080276e-05,6.645918e-06,6.109476e-05
0.5160459,0.0,0.0010380745,7.495284e-05,6.914139e-05,0.0005284846,0.00060364604,0.6119597,0.00086191297,0.006813675
0.00017797947,0.00010994077,0.0002591014,0.00041750073,5.2452087e-06,0.9917127,0.009496778,5.90086e-06,0.010549337,6.5118074e-05
5.0842762e-05,7.748604e-07,5.364418e-07,0.0,2.9802322e-06,8.940697e-08,0.0,5.9604645e-08,0.00023713708,0.9994159
2.861023e-06,0.97799575,0.0049994886,0.0071036518,3.5762787e-07,0.001876235,0.009908676,5.9604645e-08,0.9770068,0.0015799403
0.00025045872,0.009388119,0.019042611,0.99953806,0.11517593,0.0057555735,0.0959844,2.682209e-07,0.01631555,5.5104494e-05
0.018057376,2.9802322e-07,5.659461e-05,0.00011155009,6.7055225e-06,2.4467707e-05,0.00072169304,0.00018507242,0.9299315,0.0030217767
0.01263988,0.00018236041,1.3113022e-06,0.0052951276,5.9604645e-08,0.0001835227,0.07183799,1.0669231e-05,0.8938827,0.035045385
0.9836689,1.6093254e-06,6.943941e-06,3.6746264e-05,8.34465e-07,5.9992075e-05,0.00030198693,2.95043e-06,0.0013150573,0.0024625957
0.2334747,0.0,6.556511e-06,8.910894e-06,1.1920929e-07,2.2947788e-06,0.0014973283,0.00014734268,0.91144943,2.3126602e-05
0.00023984909,5.9604645e-08,0.00019276142,0.0002541244,7.683039e-05,2.1398067e-05,0.0008223355,0.00015571713,0.99471307,8.940697e-05
0.000107347965,0.013268948,0.00045681,0.012758195,0.0003092587,0.0009301305,0.9672723,4.2527914e-05,0.06745124,0.004256934
0.9989338,0.0,1.1920929e-07,8.285046e-06,0.0,6.172061e-05,0.00014179945,1.66893e-06,1.4126301e-05,4.7773123e-05
0.9945433,0.0,8.34465e-07,1.5169382e-05,8.940697e-08,0.00013917685,0.00025469065,9.298325e-06,7.3075294e-05,0.00042140484
0.00015112758,4.917383e-06,3.6358833e-06,0.0,6.633997e-05,7.4505806e-07,1.7881393e-07,1.1622906e-06,0.005035937,0.9970306
0.99019164,0.0,1.9133091e-05,6.937981e-05,1.1920929e-07,0.0005040467,0.00054627657,0.00039827824,0.000106304884,0.00026783347
2.631545e-05,0.9160665,0.09555909,1.0728836e-06,5.364418e-05,0.0011158586,0.0021863282,8.34465e-07,0.01501438,0.0477781
5.185604e-06,8.940697e-08,9.840727e-05,0.9998319,0.7492119,0.00020337105,0.00231117,4.7385693e-06,0.0018590093,5.6028366e-06
0.00028571486,8.350611e-05,3.6358833e-06,0.00015631318,1.1920929e-07,0.00057271123,0.99478817,1.4305115e-06,0.00018420815,3.4749508e-05
0.99524486,0.0,5.0365925e-06,6.28829e-06,0.0,0.00014024973,8.240342e-05,0.0006997287,3.0219555e-05,0.00027367473
2.9534101e-05,0.0077186823,0.97218996,0.00040081143,0.0068124533,0.0001205802,0.00033959746,7.638335e-05,0.7050868,0.0001630485
2.4437904e-06,0.00010564923,0.00793007,0.00040450692,0.00054243207,0.997527,0.0037167668,2.1278858e-05,0.0099849105,0.00072449446
0.985847,1.4901161e-07,2.7418137e-06,3.7550926e-06,2.0861626e-07,9.9122524e-05,0.00017759204,2.360344e-05,0.00061914325,0.0031479597
0.0034067929,0.0006764233,0.006480336,0.00029709935,5.0395727e-05,0.9861515,0.039545685,0.00075900555,0.0005392432,0.0004145205
0.0011167228,0.0,1.6868114e-05,4.23193e-06,2.8312206e-06,1.0192394e-05,0.00017401576,0.0006221533,0.98857677,0.0003581345
2.6464462e-05,0.008335024,0.00041732192,0.028247416,0.0006457567,0.009837061,0.9662335,1.835823e-05,0.35357928,0.0019567013
5.4329634e-05,0.95169705,0.033667624,0.24699584,0.0006554127,0.0013712645,0.04607579,8.940697e-07,0.51919144,0.03020677
3.966689e-05,0.0006040931,0.0024045408,0.0009012222,1.4364719e-05,0.9939629,0.004532248,7.814169e-05,0.045962572,0.00040760636
0.00047701597,0.0002937913,1.6242266e-05,0.0,6.2167645e-05,5.662441e-07,1.1622906e-06,1.7881393e-07,0.0023006797,0.9941516
0.77232647,1.66893e-06,6.2584877e-07,6.7949295e-06,1.1920929e-07,2.0980835e-05,0.0017752945,1.1622906e-06,0.15139434,0.005399674
0.037705064,0.0,4.3034554e-05,5.811453e-06,3.4570694e-06,1.3798475e-05,0.0004749,0.0038717985,0.9222531,0.0009434521
2.2113323e-05,5.733967e-05,0.006318867,0.00030586123,7.009506e-05,0.9958122,0.0053838193,0.0007555485,0.018895477,0.006597966
1.0699034e-05,0.23850656,0.54828185,0.013965279,1.1742115e-05,0.00035825372,0.001537621,1.1920929e-06,0.9396699,9.468198e-05
0.0021766424,0.000135988,0.0026421547,1.847744e-05,0.7613611,8.749962e-05,0.0043457747,0.0004183054,0.6294388,0.03188944
1.0192394e-05,0.012709469,0.019227147,0.009757847,0.003423363,0.9787548,0.037572175,0.0002129674,0.8712619,0.0011381805
0.95825076,0.0,2.2023916e-05,3.066659e-05,3.695488e-06,0.000372231,0.00036782026,0.00020369887,0.0021873415,0.0013819039
0.82293046,2.6196241e-05,5.1885843e-05,4.014373e-05,6.1392784e-06,7.5519085e-05,0.00037178397,4.1753054e-05,0.014072776,0.12945059
0.0049996376,0.003306836,0.009168804,0.08471799,0.024486661,0.9724417,0.018639356,0.058773458,0.0037223697,0.024511933
0.00023666024,4.798174e-06,0.86504936,0.0026326478,0.024780214,0.00012475252,0.004070133,0.01205641,0.93193173,6.133318e-05
0.00091677904,0.29187852,0.12689295,0.02553463,0.0006662309,0.91122234,0.14992225,0.0044843554,0.37631086,0.014329493
0.00062042475,0.06357369,0.0034811199,0.6960026,0.0017358363,0.00045865774,0.7543447,0.00025576353,0.7739079,0.028736472
0.0014970601,3.5762787e-07,0.00025618076,0.9105215,0.9654597,0.011506885,0.00451228,3.090501e-05,2.1487474e-05,0.00017356873
0.0073935986,1.9341707e-05,0.9933917,0.5084193,0.00038349628,0.0003825128,0.00021907687,0.0005169511,0.0020577908,8.717179e-05
0.03395158,5.9604645e-08,2.2351742e-06,6.264448e-05,1.9669533e-06,2.4974346e-05,0.0010328889,1.1563301e-05,0.9001043,0.0005252063
4.2885542e-05,0.0034082532,0.40269342,0.999007,0.010021061,0.00020766258,0.00033557415,8.940697e-08,0.01941806,1.1384487e-05
0.99767345,0.0,5.9604645e-08,3.33786e-06,0.0,1.4543533e-05,8.6158514e-05,1.0430813e-06,1.5318394e-05,0.0006606579
0.69763637,1.7940998e-05,3.427267e-06,0.00036212802,5.9604645e-08,0.00092974305,0.41573307,4.005432e-05,0.0035410821,0.00030073524
0.0001296103,6.2584877e-07,0.00028663874,0.0015941858,0.0015664697,5.1110983e-05,0.0014528334,5.7667494e-05,0.9907005,0.00021198392
0.0019373,1.1920929e-07,1.1026859e-05,0.9981126,3.9577484e-05,0.00015380979,0.0006977916,8.046627e-07,0.00011217594,1.9848347e-05
0.9901424,0.0,4.172325e-07,2.682209e-07,2.682209e-07,0.00016111135,0.000118911266,8.279085e-05,1.129508e-05,0.001639545
0.10538536,1.1622906e-06,2.6494265e-05,0.863524,0.0001706779,0.0021957457,0.0019555986,8.0406666e-05,0.0008506477,0.002769798
0.0054237545,1.1920929e-07,0.00035735965,8.7320805e-05,0.0059227943,1.5199184e-05,0.00069087744,0.00090277195,0.9490283,0.0011616051
0.00022867322,6.3717365e-05,0.0004889369,0.0001887083,6.8843365e-06,0.9940257,0.011823267,1.8328428e-05,0.0038097799,0.000123173
0.9963615,1.1920929e-07,1.2814999e-06,0.00018024445,8.940697e-08,0.00020724535,0.00048559904,5.6922436e-06,6.3598156e-05,0.0004823208
0.0002591908,5.9604645e-08,2.5898218e-05,0.9983183,9.647012e-05,0.00034949183,0.0013414919,5.364418e-07,2.1725893e-05,9.74834e-05
0.9614988,1.5288591e-05,0.00032866,1.3709068e-06,2.9802322e-06,0.0002091527,0.00029298663,0.0009369254,0.0021912158,0.076256335
0.00034239888,0.0,1.5318394e-05,1.9311905e-05,1.1920929e-06,2.5629997e-06,9.897351e-05,0.99736947,0.00029277802,5.4568052e-05
0.0049221218,0.00015315413,4.5776367e-05,0.00032678246,5.6922436e-06,0.007278681,0.9456767,0.00072559714,0.21287587,0.00042185187
0.0005096495,3.5762787e-07,0.00019818544,0.00037387013,2.7954578e-05,4.1544437e-05,0.00077950954,0.00013428926,0.9903542,0.0002773702
0.9937667,0.0,1.4603138e-06,2.3663044e-05,8.940697e-08,0.00013312697,0.00019305944,6.854534e-06,0.0001630485,0.00072681904
0.006057143,0.009066403,0.0005147457,4.2915344e-06,0.00015002489,0.00010052323,0.0015292466,3.644824e-05,0.6707783,0.18757802
0.014612138,1.6331673e-05,0.00012072921,0.0009993017,5.275011e-06,0.9822328,0.010273367,4.9442053e-05,0.00027483702,0.00020748377
0.0004233718,5.9604645e-08,1.3411045e-06,0.998235,2.4318695e-05,4.503131e-05,0.0016725659,1.1920929e-07,0.0030224621,2.3812056e-05
0.19954497,0.00064590573,0.008429319,0.00076428056,0.00054705143,0.0007596612,0.0017251372,0.00049209595,0.059317708,0.114708275
0.00021642447,0.6827591,0.01116842,1.680851e-05,0.00035482645,0.0009627938,0.03397408,4.2289495e-05,0.01537773,0.27229083
0.99059,1.1920929e-07,6.2584877e-07,1.2844801e-05,8.940697e-08,6.991625e-05,0.00039839745,6.109476e-06,0.000456959,0.0006399751
0.92412865,2.3841858e-07,2.9444695e-05,1.4305115e-05,3.093481e-05,0.00085166097,0.002297461,0.00042909384,0.0009917319,0.00345698
0.00037279725,2.092123e-05,1.9490719e-05,0.9917636,3.8534403e-05,0.046925724,0.008629799,1.2725592e-05,0.012033582,0.0028917491
0.99414206,0.0,0.0,4.6491623e-06,2.9802322e-08,2.3633242e-05,0.0002398789,1.6987324e-06,4.401803e-05,0.0006457269
0.00038656592,2.2351742e-05,0.0003825724,0.0011149049,5.930662e-06,0.99194443,0.0111293495,0.00011512637,0.0018855929,0.0005303323
7.9244375e-05,0.95877355,0.07880247,0.00865072,9.417534e-05,0.0060913563,0.010576397,2.413988e-06,0.9286119,0.0030075312
0.98930943,2.682209e-07,5.9604645e-07,9.924173e-06,0.0,1.4424324e-05,0.00016242266,1.0430813e-06,0.0007481575,0.003457576
0.9927384,5.9604645e-08,5.00679e-06,0.0008008182,1.1920929e-07,0.00037130713,0.0004248321,1.4871359e-05,0.0002091527,0.00017139316
0.02895987,5.0246716e-05,4.7385693e-06,0.0001758635,2.682209e-07,0.0014518797,0.95542693,5.841255e-06,8.353591e-05,5.2005053e-05
0.0074311793,0.0,2.387166e-05,1.347065e-05,4.261732e-06,2.926588e-05,0.00047948956,0.98574996,0.000106841326,0.00092834234
3.6507845e-05,0.00011250377,0.00020179152,6.070733e-05,0.0010302067,0.94903314,0.47139275,6.604195e-05,0.015247703,0.0002540052
0.00035750866,0.93674505,0.030622214,5.2452087e-06,2.7120113e-06,0.04499659,0.00076776743,5.2452087e-06,0.16746789,0.012812346
0.99788797,0.0,2.0861626e-07,1.2457371e-05,0.0,4.428625e-05,0.00017234683,1.3709068e-06,4.2438507e-05,0.00022244453
3.6239624e-05,5.364418e-07,0.0009239912,0.37770274,5.1617622e-05,2.2053719e-06,0.001301676,3.874302e-07,0.98718095,2.3841858e-06
0.9958862,0.0,6.2584877e-07,1.1026859e-05,0.0,0.00011366606,0.00013935566,1.1652708e-05,5.77271e-05,0.00030064583
1.090765e-05,0.0,3.3974648e-06,0.9998519,0.005932778,2.8699636e-05,0.0012235641,3.5762787e-07,0.00011155009,4.5895576e-06
0.003455013,0.0007697344,0.0012172163,0.13215703,0.0022233427,0.9472745,0.04062015,3.695488e-05,0.006537378,0.00066405535
0.9799926,0.0,7.688999e-06,2.8908253e-06,4.172325e-07,0.00047066808,0.0002001524,0.0019812286,6.15716e-05,0.0048089623
6.887317e-05,0.0005660355,0.000100791454,0.009175181,2.6971102e-05,0.0001733005,0.9594781,0.0002875924,0.90224826,0.0029032826
0.8276349,3.1888485e-06,8.204579e-05,2.6643276e-05,0.00021749735,0.00041550398,0.0010529757,0.000333488,0.006335497,0.057293802
0.9491961,1.1920929e-06,1.3411045e-06,4.348159e-05,1.4811754e-05,3.8683414e-05,0.00035247207,5.751848e-06,0.0013674796,0.029857725
0.97674,0.0,1.31726265e-05,1.13248825e-05,1.7881393e-07,0.00015220046,0.00026643276,0.00019621849,0.0012667179,0.00065103173
0.0014938712,0.0,5.2452087e-06,4.914403e-05,2.0861626e-07,4.7385693e-06,0.00052282214,3.5494566e-05,0.9921413,5.7160854e-05
0.2554907,2.6524067e-06,5.3226948e-05,2.9683113e-05,3.0100346e-06,0.000107228756,0.00094890594,0.00011733174,0.54163986,0.007942647
0.010054171,0.00024181604,0.00012105703,8.222461e-05,0.0002155304,0.00020954013,0.0024433732,0.00045603514,0.6948782,0.46624616
0.38617995,8.940697e-08,1.0728836e-05,5.4061413e-05,1.4901161e-07,4.1276217e-05,0.0016742349,2.3454428e-05,0.73778516,9.918213e-05
0.0001513958,0.0,5.9604645e-08,0.9990765,5.00679e-06,0.00018164515,0.0019153655,2.0861626e-07,6.976724e-05,6.225705e-05
0.0031414032,1.7434359e-05,3.7252903e-06,5.364418e-07,3.9339066e-06,0.00019204617,0.004876256,0.00030699372,0.82180846,0.14290994
1.1563301e-05,2.5451183e-05,2.4408102e-05,0.99966085,0.00016900897,0.00014004111,0.013092577,0.0,0.041846752,0.00014683604
5.3972006e-05,5.9604645e-08,2.95043e-06,0.9995361,0.002167344,0.00014135242,0.004036039,3.5762787e-07,0.00021904707,5.1885843e-05
0.97559917,5.9604645e-08,9.429455e-05,1.3053417e-05,1.4901161e-07,0.0003285706,0.00020617247,0.0012880266,0.001172483,0.0033997
0.0052883923,2.3841858e-07,0.0006568432,6.0796738e-06,0.027176082,5.6654215e-05,0.00296548,0.0063913465,0.9335431,0.0019490719
0.0005747378,0.00044509768,0.00056776404,0.91471803,0.98514974,0.0036498606,0.57803434,2.5600195e-05,0.008541226,0.0006174743
0.99843836,0.0,4.172325e-07,2.130866e-05,0.0,9.408593e-05,0.00016838312,5.3942204e-06,2.8699636e-05,8.4728e-05
0.009016454,5.9604645e-06,6.67274e-05,0.0004826188,7.8082085e-05,4.9948692e-05,0.0017820299,7.2181225e-05,0.9323655,0.0061548054
0.012949765,7.7188015e-06,7.331371e-05,0.0023495853,4.759431e-05,0.000119656324,0.0058880746,1.3053417e-05,0.9536934,0.00041157007
0.00012376904,1.4901161e-07,0.00019177794,0.0003103912,7.253885e-05,3.129244e-05,0.00089019537,0.00025454164,0.9956574,0.00019657612
1.3023615e-05,0.9618707,0.014630437,0.00053039193,6.4074993e-06,0.0009512305,0.0033397973,2.3841858e-07,0.7673788,0.019919038
0.0002438128,0.0,3.33786e-06,0.9995456,0.00012886524,0.00014296174,0.0008996725,3.5762787e-07,3.245473e-05,1.1593103e-05
7.2568655e-05,0.19004187,0.6186481,0.012292534,0.0040001273,0.98127407,0.026944011,0.00018200278,0.02124533,0.004016161
0.017927766,0.00017905235,0.0014166236,0.00010615587,3.1411648e-05,0.8285527,0.26792294,0.0014193058,0.0028131902,0.00076434016
1.3291836e-05,0.0006098151,0.004754901,0.0075078905,0.00044894218,0.99724424,0.0056469142,2.0444393e-05,0.0050039887,0.000338912
0.98805773,2.9802322e-08,5.8323145e-05,2.6732683e-05,2.682209e-07,0.00040990114,0.00031518936,0.0004323125,0.00058448315,0.00040864944
4.172325e-05,0.0,0.00024068356,0.00012257695,1.9967556e-06,3.1590462e-06,0.00032126904,0.0005505085,0.99922246,9.23872e-07
0.0014683306,0.0,2.4795532e-05,1.7434359e-05,5.9604645e-08,5.2452087e-06,0.00074741244,0.00014695525,0.99190366,2.5212765e-05
0.0018596947,2.9802322e-08,0.00014933944,5.942583e-05,1.8894672e-05,2.0593405e-05,0.00051259995,0.00051379204,0.9800257,0.00043717027
0.0394001,5.9604645e-08,9.834766e-06,9.62615e-06,0.0,2.7567148e-05,0.0014761686,0.00030896068,0.95805216,0.00087732077
0.0023026466,2.9802322e-08,4.4882298e-05,0.0014089346,5.543232e-06,6.467104e-06,0.0016096532,1.168251e-05,0.98775154,2.3692846e-05
0.00016576052,0.5908082,0.028840631,8.34465e-07,0.0011817217,0.00013381243,0.0048234463,1.2099743e-05,0.005351603,0.6155772
3.159046e-05,3.746152e-05,0.0005431175,0.9995612,0.00023624301,3.7789345e-05,0.0056658983,2.9802322e-08,0.16980064,1.7255545e-05
0.9223863,2.9802322e-08,1.5169382e-05,9.056926e-05,0.0,0.000116080046,0.00040388107,2.9742718e-05,0.04121539,7.882714e-05
0.001594156,2.9802322e-08,0.00086829066,0.00042533875,0.00086277723,3.9815903e-05,0.0017104447,0.005616188,0.9913832,8.794665e-05
0.0089634955,0.0,9.921193e-05,0.00010177493,4.7385693e-06,4.3809414e-06,0.0011831522,0.000338614,0.98712486,1.013279e-06
0.00023120642,0.30593717,0.032850415,0.01887104,5.814433e-05,0.009395301,0.23653552,1.0281801e-05,0.92798567,0.0019514859
0.007478982,0.016692549,0.013081461,0.00012028217,4.3064356e-05,0.0024704933,0.74626184,0.0010459125,0.00042653084,0.016109169
0.85667074,1.9043684e-05,0.00012266636,2.0563602e-06,0.00018364191,0.00013235211,0.00051277876,5.9068203e-05,0.0026877224,0.080515414
0.9979094,0.0,7.748604e-07,7.599592e-06,0.0,0.00020083785,0.00019699335,1.719594e-05,2.1338463e-05,8.991361e-05
0.87569976,1.7881393e-07,0.00011700392,1.9997358e-05,1.218915e-05,0.00038185716,0.00087052584,0.00705871,0.00627473,0.012837261
0.99415183,0.0,1.3113022e-06,3.516674e-06,5.9604645e-08,9.3758106e-05,0.00010728836,2.6404858e-05,0.00012615323,0.001037538
2.3037195e-05,0.77452743,0.1689342,3.33786e-06,3.8325787e-05,0.0015358627,0.02844274,1.4662743e-05,0.002569884,0.059348255
0.002268225,2.4735928e-06,0.0050252974,0.00022414327,9.030104e-06,5.966425e-05,0.0042383373,0.00038540363,0.98671365,3.20971e-05
0.00067994,0.61036015,0.29607242,0.015730292,0.017286628,0.00197047,0.0031216145,2.977252e-05,0.14080295,0.15742072
0.9685868,1.1920929e-07,6.4373016e-06,5.158782e-05,1.4603138e-06,0.00024867058,0.00046604872,1.2725592e-05,0.0023716986,0.0010075569
0.96171695,4.172325e-07,1.5199184e-05,1.6450882e-05,4.172325e-06,0.00021803379,0.0004760027,6.338954e-05,0.0032096505,0.008012921
0.00024664402,0.00032928586,0.01629743,0.99871707,0.33628154,0.0041372776,0.0018801391,4.7683716e-07,0.0007367432,1.21593475e-05
4.827976e-06,0.9734099,0.02392441,1.7881393e-07,1.3440847e-05,0.001175493,0.0015029609,5.662441e-07,0.11282164,0.030904412
0.0011409223,4.7683716e-07,6.4611435e-05,0.0002616346,2.7120113e-05,3.4213066e-05,0.0011867881,5.4478645e-05,0.98385924,0.000585407
0.9822656,1.4007092e-06,7.748604e-07,5.841255e-06,5.9604645e-08,1.79708e-05,0.00043207407,1.3113022e-06,0.0011743605,0.009107411
0.00014925003,4.172325e-07,2.5182962e-05,0.000341177,2.0563602e-06,1.8239021e-05,0.0013839006,3.2782555e-06,0.9880508,0.0006850958
3.8206577e-05,5.9604645e-08,0.0040262938,0.001419425,0.2806946,7.125735e-05,0.0061104298,0.00079891086,0.9932051,1.31726265e-05
0.98486835,0.0,1.0311604e-05,5.096197e-06,5.9604645e-08,0.0002758503,0.0002335012,0.00062319636,0.0001488328,0.0013080537
2.8431416e-05,0.0010507107,0.002228409,0.0018422008,0.0011618435,0.973207,0.07310608,8.3476305e-05,0.75010985,0.0003055036
4.3809414e-06,0.80510944,0.19946274,0.016430974,0.0010743439,0.98153853,0.01581487,6.723404e-05,0.6652565,0.0015644431
0.0013208091,0.00019237399,0.00019305944,0.99696654,0.0059221685,0.0050260127,0.0089919865,6.2584877e-07,0.0024092197,0.001378119
0.99351513,0.0,5.722046e-06,2.336502e-05,0.0,0.00023758411,0.000166744,0.000110685825,8.606911e-05,0.00047650933
0.11152053,8.46386e-06,0.00044852495,1.1205673e-05,0.000112980604,0.0024057925,0.02183041,0.61944044,9.635091e-05,0.20125577
0.00050261617,0.006935686,0.915663,6.6161156e-06,0.00078341365,5.7965517e-05,0.000302732,0.00029230118,0.19795218,0.0009636581
0.87062585,0.0,7.6800585e-05,6.2584877e-06,8.34465e-06,0.00063994527,0.0002143383,0.06954381,0.00018921494,0.007755935
0.9929518,2.9802322e-08,3.0696392e-06,4.348159e-05,5.9604645e-08,0.00023946166,0.00022017956,3.3915043e-05,0.00013974309,0.0009147823
0.0004005432,0.5039873,0.006093651,0.97778046,0.004221767,0.0019735098,0.57631207,5.841255e-06,0.62976277,0.031958252
0.9916307,1.7881393e-07,5.00679e-06,4.887581e-06,1.7881393e-07,6.4224005e-05,0.00014412403,1.0997057e-05,0.00025895238,0.0029236376
0.06338498,0.00024953485,0.00012677908,1.1920929e-06,2.4080276e-05,4.145503e-05,0.000808388,0.000109285116,0.5492693,0.20843405
0.0014153719,0.0035984516,3.889203e-05,0.0025589466,3.427267e-06,0.0002438128,0.96066856,9.897351e-05,0.1377267,0.0032814145
2.989173e-05,5.9604645e-08,0.00020185113,0.99930936,0.00045216084,3.9190054e-05,0.0016674995,6.0498714e-06,0.0008801222,6.404519e-05
0.9916971,2.9802322e-08,9.23872e-07,2.771616e-06,3.2782555e-07,0.000161618,0.0003540814,9.089708e-06,0.00010097027,0.00097480416
0.9981307,0.0,3.5762787e-07,3.4183264e-05,0.0,8.672476e-05,0.00023373961,3.4570694e-06,3.257394e-05,0.00015154481
0.00011047721,0.0046176612,0.01626721,0.00818339,0.000436157,0.99190664,0.014680594,5.9247017e-05,0.0077159703,0.0010675788
0.00033283234,8.940697e-08,4.5120716e-05,7.033348e-06,2.1457672e-06,4.2915344e-05,0.0014088154,0.0014947057,0.9846735,0.0027355552
4.220009e-05,4.1007996e-05,2.3424625e-05,0.003426373,3.695488e-06,0.00015461445,0.82544327,6.753206e-05,0.97197646,0.0013125837
0.00034582615,0.0,7.0631504e-06,6.017089e-05,0.0,5.364418e-07,0.00070375204,1.3053417e-05,0.99889994,7.748604e-07
1.3321638e-05,0.25082725,0.81165636,0.00029608607,0.017194599,0.0006414652,0.0024233162,1.2069941e-05,0.28487903,0.0027178228
0.99528456,0.0,8.34465e-07,1.2814999e-05,0.0,6.201863e-05,0.00016206503,2.142787e-05,0.00018575788,0.0007548034
0.00037309527,4.6491623e-06,1.3291836e-05,0.0,7.849932e-05,7.748604e-07,4.4703484e-07,2.2649765e-06,0.00035497546,0.9977455
0.0022004545,6.2584877e-07,2.7567148e-05,1.1920929e-06,0.99774384,0.00024077296,0.026128083,6.1690807e-06,5.337596e-05,0.0011098683
0.96049696,1.6093254e-06,2.3245811e-06,4.23193e-06,4.2021275e-06,4.2766333e-05,0.00035586953,5.155802e-06,0.0009306073,0.022324592
0.048250496,0.00012728572,0.0001219511,1.3709068e-06,0.0005803406,0.00028538704,0.0027093291,0.00078076124,0.020351768,0.69245577
0.9956251,0.0,7.1525574e-07,2.4139881e-05,0.0,8.764863e-05,0.0001925528,8.046627e-06,0.00037431717,9.930134e-05
7.7068806e-05,6.854534e-07,7.748604e-07,0.0,8.761883e-06,0.0,0.0,2.9802322e-08,0.00019407272,0.99925864
0.0041911304,1.7881393e-07,1.847744e-05,7.0631504e-06,2.503395e-06,6.341934e-05,0.0021702647,0.0008459687,0.9563123,0.00513348
0.36021343,0.0011515915,0.00011190772,0.00031805038,0.00040134788,0.00010430813,0.008069366,7.966161e-05,0.3589675,0.26321805
0.9965583,5.9604645e-08,8.940697e-07,5.5015087e-05,0.0,0.0001052618,0.00021973252,2.592802e-06,0.00021862984,0.000161767
5.2839518e-05,0.00046533346,4.2289495e-05,0.0010623634,3.4570694e-06,0.00067049265,0.99529684,2.5361776e-05,0.0031340122,0.00031501055
0.00010982156,7.2300434e-05,0.0022516847,0.00023773313,7.95722e-06,0.99816453,0.0051917434,0.0010282993,0.006506592,0.0014246106
0.0026256442,2.9802322e-08,0.000161618,0.99417293,4.130602e-05,0.00010243058,0.0002683699,2.6524067e-06,1.090765e-05,5.155802e-06
0.9817722,2.9802322e-08,3.4868717e-06,6.377697e-06,9.62615e-06,0.00039193034,0.00038063526,6.318092e-05,8.752942e-05,0.001462251
7.042289e-05,2.682209e-06,3.516674e-06,0.9993776,2.3066998e-05,0.00048041344,0.0050646663,8.940697e-08,0.0006825328,0.00040987134
4.0233135e-05,0.93886054,0.009431273,0.9930107,0.00043919683,0.0012302697,0.06935927,0.0,0.32652968,0.0011568964
0.99503547,5.9604645e-08,3.6358833e-06,1.3887882e-05,0.0,0.00020602345,0.00014597178,0.00013664365,4.9859285e-05,0.00086307526
0.00026467443,0.00014904141,0.0025084913,0.016137987,0.8678922,0.9311008,0.19976178,1.347065e-05,0.0005495548,0.00039362907
0.00010210276,0.0,9.179115e-06,0.99961543,3.2782555e-06,1.963973e-05,0.00069049,8.940697e-08,7.367134e-05,1.0222197e-05
0.00032114983,0.0,0.00011998415,7.888675e-05,6.4969063e-06,3.6358833e-06,0.00022763014,0.0032267272,0.99756634,4.4703484e-06
7.0005655e-05,2.3841858e-07,1.2814999e-06,0.9940384,3.862381e-05,3.8981438e-05,0.0047600865,1.1324883e-06,0.15425241,0.0001771748
9.956956e-05,1.4901161e-05,2.5629997e-06,0.0,7.4505806e-06,2.0861626e-07,1.7881393e-07,5.9604645e-08,0.0012824535,0.9982265
4.246831e-05,0.0,3.3080578e-06,0.99964815,8.5532665e-06,7.95722e-06,0.0013729036,5.9604645e-08,0.00010508299,1.1026859e-05
0.029427081,0.00014021993,3.6627054e-05,0.0003992021,3.668666e-05,0.0007506013,0.805706,0.0010447204,0.2921846,0.004810095
0.9917197,0.0,1.1622906e-06,1.937151e-06,0.0,0.00012806058,0.00020959973,4.2438507e-05,5.477667e-05,0.0037544668
0.99878037,0.0,3.2782555e-07,5.990267e-06,0.0,8.028746e-05,0.00012287498,4.798174e-06,1.335144e-05,8.4757805e-05
0.8689606,8.940697e-08,0.00011950731,1.3679266e-05,4.7683716e-07,0.00032791495,0.00026616454,0.05840972,0.001249522,0.023452371
0.008778781,6.3955784e-05,0.0013329685,0.0004336238,1.1771917e-05,0.0033771396,0.77670777,0.66845983,0.00051665306,0.0059164166
1.7881393e-06,7.238984e-05,3.6656857e-06,0.99615884,2.1159649e-05,0.00023794174,0.054591805,2.9802322e-08,0.77165204,0.00018721819
0.0022283196,0.22209293,0.022012353,0.0017032027,0.002253145,0.67748415,0.027543455,0.0019142926,0.53442085,0.058359057
0.0063872635,3.0100346e-06,4.4375658e-05,0.00010842085,0.000115692616,5.9098005e-05,0.0017877221,0.00011944771,0.9278246,0.0156385
1.31726265e-05,0.36367297,0.29801542,0.06047845,0.012593418,0.005060464,0.01865995,2.1100044e-05,0.9290335,0.0043923557
0.7538496,0.0,0.00021374226,9.983778e-06,1.5199184e-06,0.00021654367,0.00017401576,0.41651723,0.0005582869,0.0022104979
0.0012091398,6.2167645e-05,0.0005288124,0.0016349554,0.00016215444,8.490682e-05,0.0019032657,4.0650368e-05,0.97513634,0.00241372
0.9916229,2.0861626e-07,2.1249056e-05,5.2332878e-05,2.3841858e-07,0.00035127997,0.00027692318,9.813905e-05,0.00016000867,0.0017826259
0.9321281,3.5762787e-07,5.066395e-07,4.479289e-05,1.4901161e-07,2.2649765e-05,0.00046417117,1.0728836e-06,0.02446255,0.0017638505
0.0062187016,0.00014859438,0.99162316,0.00045514107,6.4074993e-06,0.00019022822,0.00026652217,0.0003093481,0.01893714,4.0739775e-05
0.9833045,0.0,1.5974045e-05,1.3709068e-05,4.172325e-07,0.00048312545,0.00022825599,0.00035598874,0.0002129674,0.002232641
0.00019389391,0.0,3.787875e-05,6.5624714e-05,9.834766e-07,1.8388033e-05,0.000677377,4.5835972e-05,0.99193215,0.0003861487
0.29750726,5.9604645e-08,2.348423e-05,1.9222498e-05,5.066395e-07,9.417534e-06,0.0032773912,0.00018450618,0.8708104,0.0002949834
0.9908978,5.662441e-07,2.759695e-05,9.462237e-05,1.937151e-06,0.0004247725,0.00046014786,2.0444393e-05,0.00019517541,0.0011182427
0.0217323,0.000101059675,1.4841557e-05,0.00020059943,2.8014183e-05,7.241964e-05,0.0010107756,1.0758638e-05,0.7536013,0.083533764
0.020120233,8.34465e-07,7.405877e-05,4.801154e-05,0.00056785345,6.443262e-05,0.002552569,0.0006119907,0.93855,0.0057147443
0.0007173419,0.0002206862,0.9837457,0.018845499,0.000110566616,0.00011172891,0.0037632883,0.004316956,0.04026404,0.00037023425
0.008486211,4.172325e-07,0.00014999509,0.0064712465,0.047470927,0.00026881695,0.015620798,0.0007394552,0.9611773,0.00084093213
0.0028598309,2.0682812e-05,0.00038576126,5.066395e-07,0.9078771,9.199977e-05,0.0030176044,0.00011473894,0.0015503764,0.3083576
0.02481252,8.940697e-08,1.2516975e-06,4.300475e-05,2.0861626e-07,9.5665455e-06,0.0010319352,6.198883e-06,0.942236,0.0005404055
0.00094521046,1.7881393e-07,1.0997057e-05,0.0001244843,1.847744e-06,1.8209219e-05,0.00078853965,1.7046928e-05,0.9868237,0.0005913079
0.9940008,2.9802322e-08,5.662441e-07,3.3080578e-06,0.0,3.6001205e-05,0.00016480684,2.3841858e-06,0.000156492,0.0010309219
0.004404962,1.0728836e-06,0.00013953447,0.00015559793,0.00048223138,4.220009e-05,0.0023483634,0.0006121695,0.97207105,0.003005892
1.0877848e-05,0.0038692653,0.014983356,0.00080013275,0.0009510219,0.98411524,0.04973045,0.0005258024,0.9087821,0.0002990663
0.3059109,1.6987324e-06,7.8976154e-05,8.85129e-06,1.090765e-05,0.00018513203,0.008152097,0.012808561,0.88574004,0.015335411
0.88899326,5.9604645e-08,1.4007092e-06,9.5665455e-06,1.1920929e-07,2.9683113e-05,0.00044748187,1.2099743e-05,0.065393895,0.001562953
0.9151934,8.6426735e-07,4.3213367e-06,3.066659e-05,8.165836e-06,0.00011956692,0.00067555904,1.2129545e-05,0.014363855,0.005453974
0.00023701787,5.9604645e-08,1.591444e-05,0.00033915043,1.1622906e-06,1.5974045e-05,0.0010976195,1.8417835e-05,0.9960879,0.00013241172
0.0020864606,0.00019451976,0.9920195,9.229779e-05,5.683303e-05,0.000106573105,8.6188316e-05,0.00011816621,0.004343003,0.00018706918
0.99730265,2.9802322e-08,6.854534e-07,2.7775764e-05,0.0,6.595254e-05,0.00020435452,3.5762787e-06,0.00010815263,0.00030177832
0.94321954,8.940697e-08,3.8146973e-06,1.3709068e-06,0.0005475879,0.00022467971,0.0009995103,9.715557e-06,0.0004194677,0.0018540621
0.9676539,0.0,3.9726496e-05,5.185604e-06,4.172325e-07,0.00042176247,0.00013303757,0.007737905,8.5145235e-05,0.0016233325
7.480383e-06,0.8048501,0.38453683,0.031130403,0.015928358,0.8584964,0.032253712,6.094575e-05,0.8496985,0.0018835068
0.9540918,1.1920929e-07,6.836653e-05,2.8908253e-05,2.2649765e-06,0.00032684207,0.0003208518,0.00046280026,0.005989313,0.0018914342
5.507469e-05,0.90825975,0.0022166073,0.000159204,2.1457672e-06,0.0009827316,0.005106151,1.7285347e-06,0.86773014,0.029651046
5.5015087e-05,0.96229684,0.04754719,5.662441e-07,5.504489e-05,0.0031329095,0.0012610257,6.2584877e-06,0.28238133,0.040476173
0.0756439,5.9604645e-08,1.4901161e-06,0.00015550852,1.1920929e-07,1.4483929e-05,0.0015924871,1.758337e-06,0.9028824,0.00010365248
1.0818243e-05,5.066395e-07,0.00025114417,0.999625,0.1935052,0.00014564395,0.0009100735,1.5497208e-06,0.0012260377,2.0503998e-05
0.9677605,5.9604645e-08,4.7266483e-05,0.00013449788,8.940697e-08,0.00033032894,0.00048410892,5.6266785e-05,0.006067425,0.00012499094
0.009072989,7.1525574e-07,0.00014007092,7.760525e-05,1.2218952e-06,0.0001309812,0.0045331717,0.00025892258,0.9767737,0.00037992
0.017797053,0.003229946,0.00016215444,0.0002914667,2.3841858e-07,0.0021628141,0.9287965,4.6014786e-05,0.18977946,0.0005414784
5.4508448e-05,1.7881393e-07,9.536743e-07,0.9997779,2.5391579e-05,5.3852797e-05,0.0037465394,5.9604645e-08,0.00032287836,1.731515e-05
1.79708e-05,0.00044319034,0.00031277537,3.784895e-06,5.4836273e-06,0.00020244718,0.9881395,0.0006069541,0.0008980036,0.0023389459
0.95224476,2.9802322e-08,2.5629997e-05,1.475215e-05,8.940697e-08,0.00014734268,0.00023660064,0.0005940199,0.012706786,0.0029481947
0.98747325,2.9802322e-07,0.0006478727,5.9962273e-05,1.7881393e-07,0.00051146746,0.0002898574,0.0021271408,0.0003286302,0.00095424056
1.7881393e-06,0.00033456087,0.038728386,0.0060634017,0.001154542,0.9910085,0.015791893,0.00041642785,0.015352845,0.0058291554
0.00045081973,5.9604645e-08,2.56598e-05,5.337596e-05,1.4305115e-06,1.1563301e-05,0.00045505166,3.027916e-05,0.9919398,0.00012868643
1.7136335e-05,0.8868059,0.039803505,0.46860301,0.00032508373,0.0025461912,0.014829129,5.066395e-07,0.9567361,0.0073426366
0.09066716,7.748604e-07,1.14142895e-05,4.8726797e-05,2.849102e-05,1.7046928e-05,0.0014042556,0.00014552474,0.8467233,0.017783582
1.0997057e-05,0.9506026,0.0051387846,0.024437875,7.0631504e-06,0.0015670359,0.07833314,6.556511e-07,0.91839445,0.009424269
0.98667085,0.0,7.4505806e-06,7.987022e-06,2.0563602e-06,0.00037622452,0.00024282932,0.000115305185,4.8935413e-05,0.0014197528
0.9700896,0.0,5.635619e-05,1.4603138e-05,8.940697e-08,0.0002117157,0.00012391806,0.007467419,0.00022441149,0.0014276505
3.1024218e-05,0.0,2.9802322e-07,0.9995481,1.7732382e-05,9.6440315e-05,0.0040970147,8.940697e-08,0.00040844083,6.335974e-05
0.9965991,0.0,1.1920929e-07,7.3611736e-06,0.0,6.446242e-05,0.00030472875,2.8014183e-06,1.9490719e-05,0.00040459633
0.007894456,0.007558167,5.6952238e-05,6.28829e-06,0.00021082163,1.3709068e-05,0.0002387464,1.2844801e-05,0.39530584,0.8569562
0.0041964054,0.0,0.00057810545,5.1289797e-05,5.248189e-05,4.348159e-05,0.0009575188,0.9811613,0.0028074682,0.0075200796
9.486079e-05,2.9802322e-08,3.1739473e-05,0.00054717064,9.000301e-06,7.8082085e-06,0.0003848672,2.5480986e-05,0.9962634,5.90086e-05
1.2725592e-05,0.0,1.7881393e-07,0.9996275,6.854534e-06,1.2934208e-05,0.0020731986,2.9802322e-08,0.0013553798,1.1652708e-05
9.0926886e-05,0.78532386,0.26775452,0.00075015426,0.7595618,0.0056269467,0.017168015,3.0994415e-06,0.027641863,0.06821674
7.072091e-05,1.6391277e-06,2.3245811e-06,0.0,1.22487545e-05,1.7881393e-07,8.940697e-08,1.7881393e-07,0.00037306547,0.99885935
0.00020545721,2.9802322e-08,1.04904175e-05,0.9987894,0.00049459934,0.00014540553,0.00096789,4.172325e-07,8.806586e-05,4.4554472e-05
1.0371208e-05,1.1920929e-07,5.543232e-06,0.99974394,2.4735928e-06,1.5586615e-05,0.00091704726,0.0,0.0056159794,1.3798475e-05
0.0009947419,0.0,1.1503696e-05,0.00011005998,4.172325e-07,2.2351742e-06,0.00038284063,5.2034855e-05,0.9953582,8.285046e-06
0.967003,1.7881393e-07,3.0696392e-06,9.119511e-06,8.940697e-08,5.8293343e-05,0.000297755,4.467368e-05,0.014534056,0.0035699308
0.99498445,0.0,7.748604e-07,2.2947788e-06,0.0,0.00017401576,0.00011071563,0.00012126565,9.745359e-06,0.00043320656
0.0009559393,0.0014173388,0.0009673238,0.00040495396,6.0796738e-06,0.0033832192,0.9817305,0.01415807,0.0013986528,0.0044975877
0.07287136,2.0861626e-07,5.3346157e-06,0.00018781424,6.2584877e-07,1.603365e-05,0.0050047636,1.2308359e-05,0.9463951,0.00026658177
0.9858384,2.9802322e-08,2.0861626e-07,8.34465e-07,1.9073486e-06,0.00012034178,0.00042805076,3.6656857e-06,5.814433e-05,0.00343436
0.9945642,0.0,2.6524067e-06,1.0102987e-05,1.7881393e-07,0.00028586388,0.00018745661,2.387166e-05,4.2051077e-05,0.00080409646
0.001714021,0.0,0.00013795495,4.515052e-05,1.4513731e-05,2.130866e-05,0.0011180341,0.987885,0.0020838678,0.0006185174
0.9819437,6.854534e-07,1.6838312e-05,1.5705824e-05,6.854534e-07,9.354949e-05,0.00021710992,3.1858683e-05,0.0012346506,0.006090641
0.069080114,0.0,0.000251472,2.0951033e-05,1.6391277e-06,4.017353e-05,0.00023552775,0.9368161,0.002829343,0.000893414
3.451109e-05,0.00086182356,0.8737845,0.0024245083,0.0026418567,0.00031653047,0.0023094118,0.0001501739,0.9256029,6.5654516e-05
0.0002708137,5.3077936e-05,0.99288714,0.0029881,0.0030079782,0.00012099743,0.0011108816,0.0058954656,0.38853353,9.986758e-05
0.98683935,2.115965e-06,0.00013244152,2.0444393e-05,7.748604e-07,0.00054499507,0.00024732947,0.00011253357,9.992719e-05,0.006494522
2.3245811e-06,0.0014871657,0.027460635,0.0008611977,1.579523e-05,0.99816376,0.0019039214,9.676814e-05,0.008593142,0.0019370317
0.9775461,2.9802322e-08,4.0233135e-06,1.1324883e-06,1.6987324e-06,0.00053948164,0.00021356344,0.0004541576,3.46601e-05,0.0077697337
0.97715485,0.0,4.8577785e-06,7.867813e-06,1.1444092e-05,0.00026327372,0.00031539798,0.00014591217,0.00012606382,0.00075414777
0.005303949,0.0015248954,0.8821134,0.025455862,0.0148412585,0.0005721748,0.00407058,0.002034396,0.22730038,0.0027295947
0.0025812387,1.23381615e-05,0.97993875,0.073596835,0.00085899234,0.00015258789,0.012227088,0.20841548,0.0064764023,0.000461936
0.00039440393,0.008242846,3.7044287e-05,0.99788475,0.0017168224,0.00024202466,0.9346223,4.172325e-06,0.029240102,0.005314201
6.207824e-05,8.8483095e-05,0.00041937828,0.9989934,0.0018360317,0.00032517314,0.007409543,1.7881393e-07,0.08298415,0.00011271238
0.32297063,0.0007068515,4.7296286e-05,0.00014263391,0.008926451,0.00018244982,0.005629003,0.00031927228,0.046360433,0.6070999
0.00048941374,4.172325e-07,5.9068203e-05,0.9968287,1.3113022e-05,0.00015997887,0.00083488226,3.874302e-07,4.0650368e-05,7.8588724e-05
0.9957814,5.9604645e-08,1.937151e-06,2.7656555e-05,8.940697e-08,0.00025740266,0.00016701221,1.9460917e-05,2.7030706e-05,0.00047025084
0.037286848,3.0100346e-06,4.786253e-05,7.4505806e-06,0.9279771,8.094311e-05,0.007510662,0.0002129376,0.079021424,0.012347817
4.4107437e-06,0.97258687,0.011365384,0.00033554435,1.6391277e-06,0.0026563108,0.0060566366,2.3841858e-07,0.8950201,0.0023337305
0.0004861951,2.9802322e-07,0.00011524558,0.00011193752,6.556511e-06,2.5123358e-05,0.00093466043,0.00017163157,0.994642,0.00024539232
0.959245,8.940697e-08,0.00015485287,1.6510487e-05,1.4901161e-06,0.0007005632,0.00023442507,0.0115484,0.0001322329,0.0042230785
0.97649676,1.4901161e-07,3.5762787e-07,2.5004148e-05,1.013279e-06,4.646182e-05,0.00080671906,9.23872e-07,0.0022822917,0.00090390444
7.122755e-06,0.0022848845,0.0006354153,0.997434,0.0006682277,0.00022888184,0.017185241,0.0,0.8379089,8.228421e-05
0.6410704,2.0354986e-05,3.7372112e-05,0.0008161962,4.172325e-06,6.172061e-05,0.0028739274,2.5451183e-05,0.5446908,0.006680697
0.00071534514,5.8710575e-05,0.9981111,0.20203501,0.00023710728,9.545684e-05,4.8607588e-05,4.0262938e-05,0.008765191,2.399087e-05
5.966425e-05,0.01974219,0.9582486,0.00095775723,0.0013837814,0.00011789799,0.0005389452,2.3752451e-05,0.4843614,0.00017088652
0.9468416,1.4901161e-06,1.5348196e-05,0.00021496415,1.4007092e-06,0.0002104342,0.00045785308,1.424551e-05,0.012273014,0.0026460588
0.0014349818,2.9802322e-08,0.00095298886,0.00038084388,0.00019577146,1.4811754e-05,0.0012242198,0.0001988709,0.9901217,2.4676323e-05
0.095868975,0.0006700754,0.6975401,0.00044852495,2.2858381e-05,0.000733912,0.0007888973,4.3809414e-05,0.0011238158,0.00041309
7.712841e-05,0.92099947,0.03938687,0.0013950765,0.001259625,0.0010648668,0.011311859,8.34465e-07,0.26849574,0.085777104
0.9846393,4.172325e-07,4.261732e-06,1.9967556e-06,5.662441e-07,5.5134296e-05,0.00019550323,3.3974648e-06,0.00048026443,0.0040721
0.99666685,2.9802322e-08,1.3411045e-06,3.5226345e-05,0.0,0.00011754036,0.00022530556,8.85129e-06,0.000103741884,0.00027525425
0.042122275,9.217858e-05,0.9263427,0.0005027652,0.00054106116,0.00045791268,0.002695769,0.10291895,0.36350042,0.00050103664
4.2915344e-06,1.1742115e-05,2.2411346e-05,0.9992144,0.0002207458,8.7976456e-05,0.008109301,8.940697e-08,0.4049298,7.393956e-05
0.5665305,6.854534e-07,8.404255e-06,3.5762787e-06,5.364418e-07,2.4676323e-05,0.0011756718,4.3421984e-05,0.42077357,0.005901903
0.31771597,1.7881393e-07,2.0176172e-05,6.651878e-05,1.4901161e-07,2.0056963e-05,0.0020279288,0.00072059035,0.8584337,0.0014228523
9.801984e-05,0.93657887,0.017291367,0.00024601817,6.762147e-05,0.0011790693,0.00022548437,4.172325e-07,0.23469737,0.2505125
2.3066998e-05,1.0073185e-05,2.2053719e-06,0.99990445,5.2064657e-05,0.00011405349,0.03614688,0.0,0.0017465651,0.00013312697
0.9943155,0.0,2.8908253e-06,1.0222197e-05,0.0,0.00029581785,0.00014480948,6.508827e-05,3.4868717e-05,0.0005014539
0.99646306,0.0,3.5762787e-07,2.2351742e-06,0.0,8.171797e-05,0.00012296438,9.894371e-06,2.8669834e-05,0.0005041361
0.9974892,0.0,6.854534e-07,1.8239021e-05,0.0,0.0001449585,0.00014996529,1.5676022e-05,2.670288e-05,0.00022733212
0.0021731555,1.9133091e-05,3.6656857e-06,2.3841858e-07,8.85129e-06,3.963709e-06,1.4871359e-05,1.0073185e-05,0.029988617,0.97789764
5.0365925e-06,0.964203,0.02475211,0.006105423,2.592802e-06,0.002387017,0.008941919,1.1920929e-07,0.9590338,0.0011939704
1.0818243e-05,0.0033290982,0.015229195,0.00032499433,0.00014743209,0.99557173,0.045783967,0.00028538704,0.36647958,0.00043824315
0.99509114,0.0,1.4901161e-07,3.1501055e-05,0.0,3.9756298e-05,0.00027889013,6.854534e-07,0.0004182458,7.557869e-05
0.00031730533,0.1788896,0.09632015,5.8442354e-05,0.010966629,0.00057020783,0.06818065,0.00012785196,0.0032402575,0.6213437
0.0015459359,0.00023761392,9.301305e-05,0.0,0.00048425794,2.8908253e-06,3.606081e-06,3.9041042e-06,0.0012582242,0.991211
4.5895576e-06,2.3841858e-06,0.036646664,0.00046798587,0.8850669,6.3985586e-05,0.004978895,0.00045099854,0.9831947,6.2704086e-05
0.0014956892,1.4156103e-05,0.00031235814,9.3221664e-05,9.953976e-06,0.99411577,0.03389293,6.02901e-05,0.0003116727,4.017353e-05
0.9418862,2.4735928e-06,1.1742115e-05,0.00010406971,3.874302e-07,9.691715e-05,0.00038051605,1.2010336e-05,0.02015543,0.007850587
0.93462074,3.9339066e-06,2.7388334e-05,1.2516975e-06,2.1457672e-06,5.8710575e-05,0.00012609363,8.028746e-05,0.0006069541,0.11382961
3.412366e-05,0.95107484,0.04875493,0.00011882186,6.380677e-05,0.0035624802,0.0025785863,2.9802322e-07,0.07812095,0.022018194
0.9968672,0.0,1.2516975e-06,1.052022e-05,0.0,0.00027000904,0.00031617284,3.9190054e-05,1.9669533e-05,0.00011450052
0.0017527342,1.7881393e-07,0.003216058,0.00033420324,0.0004981458,1.4960766e-05,0.0017226934,0.00045377016,0.9911125,2.3394823e-05
0.00039479136,0.0035505593,0.0007185936,0.014034808,0.006659627,0.00044506788,0.91046035,0.00029557943,0.17542031,0.013949692
0.9956565,0.0,2.1755695e-06,1.0162592e-05,0.0,0.00014269352,0.00012516975,3.799796e-05,6.890297e-05,0.0005810857
1.7911196e-05,0.00014904141,0.0013096929,0.0005428195,1.2695789e-05,0.9963409,0.007658303,1.9699335e-05,0.04988739,0.00027433038
0.26846415,0.00023022294,0.9650657,0.0005736649,2.8312206e-05,0.00058299303,0.00041911006,0.0069977343,0.0017848909,0.0023564696
1.8954277e-05,5.9604645e-08,2.0861626e-07,0.9991817,3.5762787e-07,9.924173e-06,0.0029364228,0.0,0.02426073,1.180172e-05
0.11882892,0.00012776256,0.001412034,6.5267086e-06,0.00054588914,0.00024583936,0.000454098,0.009201646,0.0027480721,0.8211683
0.05360037,5.9604645e-08,2.503395e-06,5.0514936e-05,4.7683716e-07,9.089708e-06,0.00096696615,1.7017126e-05,0.91182756,0.00028404593
0.00050726533,0.00019097328,3.707409e-05,2.336502e-05,1.3589859e-05,0.000978589,0.80648816,4.172325e-07,7.992983e-05,0.0005058944
0.008963138,1.4901161e-07,2.8759241e-05,0.00015607476,4.798174e-06,1.5765429e-05,0.0031413436,3.2514334e-05,0.9864583,0.0001359582
0.0002118051,0.2893535,0.0039895475,3.0398369e-06,7.0512295e-05,3.0696392e-05,6.636977e-05,1.7881393e-07,0.011613965,0.85047853
0.99565923,0.0,1.3113022e-06,3.9070845e-05,1.7881393e-07,0.00030249357,0.00031912327,2.0682812e-05,4.0858984e-05,8.362532e-05
0.093171984,3.0457973e-05,2.1755695e-05,8.4638596e-05,3.5762787e-07,5.7816505e-05,0.005661994,1.3142824e-05,0.91045535,0.003437072
0.9752742,0.0,2.0861626e-06,1.4007092e-06,8.940697e-07,0.00016200542,0.00021496415,0.0005764961,0.0008133054,0.0070982873
0.2581361,0.00018772483,0.97918534,0.00014126301,4.053116e-06,0.0005559325,0.0005083084,0.006584555,0.0020349622,0.00071051717
0.966379,5.9604645e-08,1.4603138e-06,1.1354685e-05,0.0009277761,0.00048077106,0.0026658177,9.000301e-06,0.00023394823,0.0017262697
0.97898364,5.9604645e-08,6.0886145e-05,5.5134296e-06,1.7881393e-07,0.00033834577,0.00012505054,0.0036583245,0.0002425313,0.00319919
0.09324536,0.00011622906,5.671382e-05,0.0004531443,0.07953635,0.0020088553,0.38927132,0.0026946366,2.1964312e-05,0.06666151
0.35961217,0.0003093481,0.9122186,0.00015333295,2.7686357e-05,0.00051125884,0.0002233684,0.0021533966,0.0014597476,0.0052898824
0.83577245,0.0,5.2571297e-05,1.6987324e-06,2.3841858e-07,0.00016653538,5.6236982e-05,0.18735209,0.00015071034,0.0037238002
5.543232e-06,0.00048744678,0.0030857623,0.0007889569,0.00032114983,0.9847944,0.019737184,8.350611e-05,0.7418912,0.00021868944
2.5361776e-05,2.9802322e-07,2.4974346e-05,0.9997438,0.017649204,0.00042572618,0.0057395697,5.662441e-07,0.00015413761,8.586049e-05
0.0037853122,1.1920929e-07,2.0325184e-05,4.5984983e-05,4.2021275e-06,2.2351742e-05,0.0012870431,0.00023546815,0.98322845,0.0008816123
0.9934722,8.940697e-08,6.2584877e-07,5.2452087e-06,0.0,1.8835068e-05,0.00013744831,1.4901161e-06,0.00019231439,0.001677841
0.0020433962,0.00025853515,0.9890522,0.0650827,0.016655117,0.00022855401,8.767843e-05,1.40070915e-05,0.003758639,0.00021207333
0.00030335784,0.20908934,0.10068059,0.9879003,0.0008445084,0.0017888546,0.14433122,2.413988e-06,0.005040854,0.0030943155
0.9898697,0.0,2.3841858e-07,1.1622906e-06,4.172325e-07,8.007884e-05,0.00027176738,3.5762787e-06,7.805228e-05,0.0015700161
0.00023829937,0.0013365448,0.0011762083,0.018416464,1.2904406e-05,0.00026670098,0.0027439594,1.2814999e-05,0.97987425,0.003952414
1.04010105e-05,0.00031596422,2.6106834e-05,2.9206276e-06,9.62615e-06,0.00030115247,0.98016053,4.172325e-07,0.000102967024,0.00036278367
0.001447767,0.0013796985,0.967239,0.00022792816,0.0036805868,0.00013229251,0.00015109777,9.10759e-05,0.013670832,0.002528578
0.0011454225,0.0,0.00015640259,0.00013118982,2.6255846e-05,4.0233135e-06,0.0006425977,0.00014361739,0.993979,5.7816505e-06
5.8680773e-05,0.82214534,0.037940532,0.0031791627,0.0051077604,0.12995023,0.03230551,4.1127205e-06,0.09320629,0.01666677
0.00017121434,1.4901161e-07,3.671646e-05,0.9990751,0.02899319,0.00016409159,0.0015388727,2.1457672e-06,0.0005329251,1.3530254e-05
6.109476e-05,0.9537493,0.0072057843,0.9942855,0.00074616075,0.001985699,0.0939922,0.0,0.25094074,0.0033797026
0.67794406,3.2782555e-07,0.00024944544,1.8775463e-05,1.013279e-06,3.6597252e-05,0.0006402135,0.017401785,0.35982335,0.0065638125
2.4080276e-05,4.0769577e-05,0.00094792247,0.00041028857,0.0003399849,0.99254286,0.017386645,5.543232e-06,0.0021448433,8.317828e-05
0.9695499,5.9604645e-08,4.8846006e-05,1.0311604e-05,3.0100346e-06,0.00041779876,0.00027510524,0.00084009767,0.000710994,0.005203873
0.00036805868,0.47519502,0.42215896,0.017512828,0.0027568042,0.96667963,0.033085436,0.00065883994,0.07288778,0.00864327
0.012040973,8.940697e-08,2.9534101e-05,1.3977289e-05,2.9802322e-08,1.32620335e-05,0.00094759464,0.0004095137,0.97473633,0.00034156442
3.1858683e-05,1.7881393e-07,0.00011238456,0.99823093,0.97881246,0.0010614991,0.003368318,2.0563602e-05,0.0003156066,3.5375357e-05
0.0005236268,2.9802322e-08,5.4955482e-05,0.00024926662,4.440546e-06,8.314848e-06,0.00039103627,0.000108510256,0.9938779,9.825826e-05
0.98869324,5.9604645e-08,6.0796738e-06,1.0848045e-05,5.662441e-07,0.00022831559,0.00018650293,5.9604645e-05,0.00027126074,0.0025133193
2.2560358e-05,9.23872e-07,6.28531e-05,0.999445,0.1889526,0.0003542304,0.004848838,5.662441e-07,0.01779899,4.7326088e-05
0.9536289,1.3411045e-06,2.7120113e-06,3.8802624e-05,7.748604e-07,3.811717e-05,0.00029715896,4.887581e-06,0.011143953,0.0074950755
0.00024953485,4.082918e-06,1.052022e-05,0.0,0.0009036064,2.0861626e-07,1.1920929e-06,3.4570694e-06,0.00035357475,0.99321604
8.791685e-05,0.00085940957,1.1831522e-05,0.99609303,4.0739775e-05,0.0003415048,0.93542314,2.2053719e-06,0.00074627995,0.00855872
9.149313e-06,0.00022920966,0.01591304,0.0057148933,0.02694422,0.99405533,0.037495673,1.9460917e-05,0.021910518,0.0004682541
0.9937483,8.940697e-08,1.8179417e-06,1.9460917e-05,1.1920929e-07,0.0002952218,0.00030192733,1.6719103e-05,3.4958124e-05,0.0015376806
0.0001938641,6.467104e-06,1.4483929e-05,0.0,0.0003966391,2.0861626e-07,6.2584877e-07,1.4007092e-06,0.0005759299,0.9963139
0.024923176,1.6987324e-06,0.00015768409,0.00022399426,0.00017806888,5.915761e-05,0.0022850037,0.0002554655,0.9230238,0.0029965043
0.0008280277,1.3411045e-06,2.232194e-05,0.0005427003,6.7949295e-06,8.5026026e-05,0.0156211555,6.338954e-05,0.9940245,0.00037252903
0.15212238,1.4901161e-07,2.1517277e-05,9.030104e-06,1.8030405e-05,2.3007393e-05,0.00047507882,0.0007329881,0.73439354,0.009741306
0.00012367964,0.0015883148,6.0915947e-05,1.2040138e-05,5.2690506e-05,0.0008377433,0.95042455,7.748604e-07,5.275011e-05,0.00042015314
0.089595795,8.940697e-08,0.00056007504,3.4421682e-05,1.0699034e-05,0.00019350648,0.006130457,0.8630924,0.051127553,0.0030905306
0.05684197,0.02056104,0.700679,1.1622906e-06,6.5118074e-05,5.5789948e-05,9.435415e-05,3.5077333e-05,0.00079247355,0.0659461
0.002934754,0.0,1.2516975e-06,4.297495e-05,2.9802322e-08,1.9669533e-06,0.0011371374,1.296401e-05,0.99588716,2.4348497e-05
5.066395e-06,0.8804883,0.024952888,3.9339066e-06,3.299117e-05,0.0010635555,0.03608504,3.993511e-06,0.016987205,0.051420063
0.0007468462,0.28827477,0.016239196,0.995226,0.0077625215,0.0014494658,0.09598181,1.7881393e-07,0.32594723,0.0010535419
0.00027376413,0.20852375,0.0017071068,7.748604e-07,0.000117212534,1.4692545e-05,2.1636486e-05,1.1920929e-07,0.015328854,0.8677243
0.27254033,0.0,7.647276e-05,1.4305115e-05,1.7881393e-07,0.00017482042,0.00017678738,0.76913357,7.0631504e-05,0.00093102455
2.0563602e-06,2.8580427e-05,2.2143126e-05,0.9995811,0.0008481145,5.9992075e-05,0.020005018,8.940697e-08,0.43949026,7.5131655e-05
0.9267354,7.1525574e-07,1.4722347e-05,6.3180923e-06,7.4505806e-07,7.814169e-05,0.00048089027,6.02901e-05,0.031805843,0.0067703426
0.99783313,0.0,5.364418e-07,9.655952e-06,0.0,0.00012242794,0.00019681454,4.3213367e-06,5.3435564e-05,9.930134e-05
0.99071366,2.9802322e-08,9.983778e-06,3.990531e-05,5.9604645e-08,0.0001783371,0.00012630224,0.0001758039,0.00026610494,0.0011417568
0.9701412,2.9802322e-08,1.4007092e-06,1.013279e-06,1.3113022e-06,0.0001091063,0.00021275878,8.189678e-05,0.00096568465,0.008254498
1.4543533e-05,0.015761793,0.34034783,0.0147379935,0.69849783,0.3212369,0.111225784,0.00064229965,0.8999146,0.00057813525
0.0010687113,6.020069e-06,0.00017827749,7.033348e-05,1.1026859e-06,0.991381,0.0051261485,0.00018379092,0.0007929504,0.00013649464
0.9670894,1.5795231e-06,2.2500753e-05,5.9962273e-05,1.0043383e-05,0.0002670884,0.00043839216,6.967783e-05,0.0011971593,0.014739841
0.17343158,6.711483e-05,6.517768e-05,2.026558e-06,0.003671199,4.2766333e-05,0.00015446544,5.978346e-05,0.0016592145,0.8720697
0.9965856,0.0,6.854534e-07,2.3841858e-06,0.0,9.88245e-05,0.000105679035,2.1189451e-05,1.1891127e-05,0.00047183037
0.00037309527,4.6491623e-06,1.3291836e-05,0.0,7.849932e-05,7.748604e-07,4.4703484e-07,2.2649765e-06,0.00035497546,0.9977455
0.0006312728,0.00031492114,0.23783451,0.0019710362,0.0026642978,0.00059199333,0.008898318,0.0026135147,0.9659277,0.000392735
0.0021323264,0.0064679384,0.897032,0.00031352043,0.0006055236,6.0617924e-05,8.8363886e-05,2.2292137e-05,0.008809775,0.0050708055
0.01232326,0.00013929605,0.00017377734,0.00013241172,2.8312206e-06,0.0005378425,0.39848182,0.0013360381,0.8745151,0.0028856993
0.0016396344,1.5109777e-05,0.00023588538,0.0032669306,0.9751417,0.38066345,0.4056123,6.979704e-05,0.0024648309,0.00015175343
0.53412694,2.4914742e-05,0.00042891502,4.091859e-05,4.130602e-05,0.000290066,0.00077593327,0.00918898,0.06339303,0.4177433
2.0116568e-05,3.5762787e-07,5.364418e-07,0.99865246,4.142523e-06,6.815791e-05,0.0031059384,5.9604645e-08,0.015076727,9.974837e-05
9.387732e-06,4.2915344e-06,0.61206824,0.0022978783,0.3357497,0.00016742945,0.007363528,0.0010228455,0.9778643,2.7298927e-05
0.9941292,0.0,0.0,2.9206276e-06,0.0,1.14142895e-05,0.00019329786,1.1920929e-07,0.0001450181,0.00038725138
0.23804104,1.6063452e-05,0.00023132563,2.05338e-05,1.3023615e-05,0.000207901,0.0012534559,0.05033949,0.16255242,0.21051309
0.97116286,5.9604645e-08,2.9802322e-07,4.2289495e-05,0.0,2.9444695e-05,0.00045880675,2.3841858e-07,0.010103703,0.00015065074
0.0003016591,5.9604645e-07,5.3346157e-05,0.0011076629,4.7773123e-05,4.157424e-05,0.0013718605,2.6375055e-05,0.99092054,0.00026369095
0.00013512373,0.85170186,0.017531157,0.048674077,0.00014820695,0.0099003315,0.061767638,7.390976e-06,0.9393108,0.0099390745
0.9913206,2.0861626e-07,6.854534e-07,9.924173e-06,1.1920929e-07,5.0663948e-05,0.00021740794,2.861023e-06,9.7602606e-05,0.005090356
0.09335804,0.00010302663,0.96459997,0.0006109774,7.1674585e-05,0.0007378161,0.00070399046,0.009366423,0.016125679,0.00080910325
4.991889e-05,0.0035189688,3.2931566e-05,0.99889946,0.00029811263,0.00036367774,0.7666688,2.0861626e-07,0.07849619,0.0008909404
0.98626107,0.0,9.208918e-06,6.5863132e-06,2.9802322e-08,0.00020033121,8.6188316e-05,0.0010050833,6.03199e-05,0.0008265078
0.0011543334,0.00010123849,0.99511504,0.057597756,0.028282195,0.00057178736,0.0005197525,0.0011122227,0.035505325,0.00041815639
0.0012525916,0.0046877265,0.0003374219,0.0006855726,6.1690807e-06,0.002389729,0.95419,0.00018334389,0.012457758,0.0023911
9.611249e-05,1.9401312e-05,1.3709068e-06,2.9802322e-08,2.95043e-06,1.7881393e-07,1.1920929e-07,2.9802322e-08,0.004467964,0.9978069
0.994004,8.940697e-08,1.6391277e-06,1.603365e-05,2.9802322e-08,9.5546246e-05,0.0001911819,9.596348e-06,0.00015765429,0.0012613535
0.0031962395,1.41859055e-05,0.00036996603,0.00032696128,7.867813e-05,0.9667368,0.027224153,1.770258e-05,0.00021210313,6.4343214e-05
6.854534e-06,0.94993645,0.00031748414,0.95093286,1.1026859e-06,0.0008697212,0.04466465,0.0,0.821877,0.0014221668
8.890033e-05,0.0002564788,0.0018262267,6.490946e-05,3.0517578e-05,0.9695066,0.23269758,0.00018188357,0.032844663,0.00028771162
0.0008959174,8.940697e-08,0.5332141,0.00040644407,0.00035265088,2.3901463e-05,0.0026700795,0.90346146,0.049753368,0.0011555254
0.0007354319,2.592802e-06,4.8696995e-05,4.440546e-06,9.775162e-06,7.224083e-05,0.0012634397,0.0007237494,0.9529597,0.059111387
1.9222498e-05,0.96638703,0.006381631,3.0696392e-06,2.026558e-06,0.00047257543,0.005732268,2.682209e-07,0.07176733,0.029343039
2.0116568e-05,0.0007356405,0.8889226,0.9598073,0.035230547,0.00013506413,0.00067806244,1.9550323e-05,0.7734735,3.07858e-05
0.00030627847,2.9802322e-08,1.13248825e-05,2.6524067e-05,2.0861626e-07,1.8686056e-05,0.0007057488,5.8621168e-05,0.9880375,0.0011214912
5.0663948e-05,0.0014095902,0.00092723966,0.9972716,0.8738822,0.93627393,0.021174878,2.7120113e-06,0.002415657,0.00042667985
0.9711957,4.7385693e-06,4.4554472e-05,4.5597553e-06,6.854534e-07,0.0002590418,0.0005351603,6.496906e-05,0.00014773011,0.040921867
0.99557203,0.0,1.013279e-06,3.33786e-06,5.9604645e-08,0.00023028255,0.00017777085,1.090765e-05,1.8447638e-05,0.00033450127
0.00018209219,0.012370884,0.16289169,0.00080531836,0.00014021993,0.9900929,0.041024834,0.002703935,0.006844014,0.0019461215
0.01937896,0.0,2.7865171e-05,5.9604645e-06,2.0861626e-07,1.40964985e-05,0.00030237436,0.98225635,4.7802925e-05,8.419156e-05
3.1888485e-06,0.00014173985,0.0018811822,0.00030648708,2.4616718e-05,0.9987278,0.0017625093,0.00023421645,0.103702664,0.001018703
0.000110566616,5.811453e-06,9.4890594e-05,0.00013124943,1.2665987e-05,0.9879409,0.0164437,1.8179417e-06,0.0033091605,1.7672777e-05
5.5134296e-06,4.592538e-05,0.0044712424,1.30832195e-05,1.7881393e-06,0.99877954,0.009312272,0.0002271235,0.025410831,0.0002632141
0.0011160076,5.3972006e-05,1.5854836e-05,4.172325e-07,5.301833e-05,3.963709e-06,9.655952e-06,1.3530254e-05,0.025387585,0.98578596
0.0009813607,0.00013068318,0.98656887,0.008792013,0.0005891621,0.0001244247,0.0013501048,0.004189223,0.010424465,0.0013004243
7.814169e-05,0.0,9.23872e-07,0.9990498,8.738041e-05,2.9176474e-05,0.0048962235,6.2584877e-07,8.183718e-05,7.537007e-05
0.62770486,1.0222197e-05,2.0593405e-05,8.85129e-06,0.00049597025,5.120039e-05,0.0018953085,3.8146973e-05,0.13100779,0.067763716
0.99694514,0.0,3.5762787e-07,4.9471855e-06,2.9802322e-08,0.00013870001,0.00013321638,1.0341406e-05,1.347065e-05,0.00027254224
0.0010041595,0.00051122904,0.0037321448,0.00026255846,2.849102e-05,0.9809061,0.012992024,0.0012707114,0.15528214,0.0018469095
0.002553463,0.00031858683,0.0012649894,0.000100553036,9.536743e-06,0.0041584373,0.9385115,0.002727121,0.022720039,0.0019657314
0.0022624135,0.83252716,0.08682427,6.7949295e-06,8.761883e-06,0.029422015,0.002740562,9.068847e-05,0.041962236,0.06148395
0.054261208,4.172325e-06,3.9607286e-05,0.00017914176,4.053116e-06,0.9344177,0.008563995,3.07858e-05,8.7440014e-05,9.047985e-05
0.9121839,5.9604645e-08,3.0100346e-06,5.364418e-07,0.0001527071,0.00028783083,0.00092959404,0.00011533499,0.0017265975,0.016224265
0.0021172166,0.0001513362,1.937151e-05,0.0,7.906556e-05,7.4505806e-07,8.34465e-07,3.5762787e-07,0.00074508786,0.9941491
7.459521e-05,0.00087308884,0.0074594617,9.548664e-05,6.431341e-05,0.97298807,0.095869154,0.0010803044,0.53357023,0.00045123696
0.92839503,1.7881393e-05,0.00085812807,6.7055225e-05,6.309152e-05,0.001903981,0.005655408,0.0062099993,0.0017110705,0.016123533
5.340576e-05,4.6789646e-06,9.801984e-05,6.470084e-05,2.2649765e-06,0.9915249,0.010287702,8.046627e-06,0.007846057,4.8190355e-05
0.9914866,0.0,6.2286854e-06,1.4483929e-05,1.7881393e-07,0.00027263165,0.00016438961,0.00040978193,1.809001e-05,0.0008147955
0.23644418,2.0861626e-06,4.1127205e-06,0.00017157197,1.66893e-06,3.874302e-05,0.0016880631,3.0010939e-05,0.7584261,0.012167484
0.00031349063,0.10730001,0.7065344,0.012636811,0.0058114827,0.698627,0.008314431,0.0001309812,0.0468314,0.0016496181
0.9763415,2.3841858e-07,1.385808e-05,4.3153763e-05,1.013279e-06,0.00028812885,0.0002925694,4.3332577e-05,0.0012648404,0.0030076504
0.0012802184,0.08085361,0.00022533536,0.9956492,0.006780088,0.0019320548,0.7830089,3.0994415e-06,0.0020623505,0.009785444
0.9959952,0.0,2.9802322e-07,5.930662e-06,2.9802322e-08,8.323789e-05,0.00016087294,4.5597553e-06,5.915761e-05,0.00029093027
1.5109777e-05,2.554059e-05,2.6524067e-06,0.99970615,8.761883e-05,0.00068846345,0.013270438,0.0,0.005370587,0.00035393238
0.9841631,2.9802322e-08,5.9604645e-08,2.0861626e-06,0.0,1.6570091e-05,0.00025260448,2.3841858e-07,0.00077548623,0.00041753054
0.00036752224,3.7550926e-06,0.00015163422,8.171797e-05,9.953976e-06,0.00011715293,0.0028952658,0.0003157854,0.9768288,0.006328255
0.0005662441,0.008452088,0.023263574,0.000492841,9.23872e-06,0.9973273,0.016875356,0.0004094541,0.010533184,0.00039052963
4.0084124e-05,1.1324883e-06,5.5462122e-05,0.9986284,0.0023011565,0.00023689866,0.004263103,4.9471855e-06,0.0011877418,0.00046366453
0.9814886,5.662441e-07,5.9604645e-06,0.0002848804,4.172325e-07,0.00018265843,0.00051543117,1.2695789e-05,0.0015553236,0.002475053
0.00032421947,0.0,1.770258e-05,7.69496e-05,1.1026859e-06,6.7949295e-06,0.00017097592,0.00012227893,0.99535924,5.4508448e-05
0.15614969,3.325939e-05,0.97488284,0.001234591,2.208352e-05,0.0012413561,0.00074759126,0.022829592,0.00661397,0.00049206614
0.00023850799,0.8637786,0.031774223,4.6789646e-06,6.645918e-06,0.00044327974,0.00043845177,1.1920929e-07,0.005453706,0.08048883
0.98154736,8.940697e-08,7.3611736e-06,5.698204e-05,1.7881393e-07,0.00021839142,0.00028455257,2.8967857e-05,0.0017257631,0.00074380636
0.0063798428,2.3841858e-07,1.4156103e-05,5.543232e-06,5.364418e-07,1.2308359e-05,0.00045251846,3.427267e-05,0.9574677,0.00089639425
0.855513,5.364418e-07,7.18534e-05,2.6911497e-05,0.00021126866,0.00040575862,0.0019868314,0.00088080764,0.034029126,0.008023977
4.9233437e-05,0.96630204,0.23011684,0.7812184,0.030582607,0.0061353445,0.06957406,6.2584877e-07,0.86571676,0.006190926
0.0025567114,0.0,2.6255846e-05,3.6418438e-05,1.6391277e-06,2.0176172e-05,0.00029209256,0.0005762875,0.98254335,0.00020718575
0.9860703,2.9802322e-08,3.5762787e-07,2.7120113e-06,1.758337e-06,0.00017258525,0.0006596744,2.3245811e-06,0.00010123849,0.0014425516
0.75198215,0.0,3.8325787e-05,1.3947487e-05,1.5199184e-06,0.00018271804,0.0003566444,0.496751,0.00010073185,0.00054112077
0.09049326,5.096197e-06,4.4703484e-07,7.250905e-05,0.0,0.0008341968,0.85830736,3.874302e-07,5.939603e-05,1.7732382e-05
0.6922697,2.9802322e-07,1.8775463e-06,2.5063753e-05,4.172325e-07,3.7550926e-05,0.0011315942,3.5762787e-06,0.27233937,0.0016047955
0.7525588,4.529953e-06,6.0498714e-06,4.377961e-05,1.4603138e-06,3.4987926e-05,0.0017929971,1.1444092e-05,0.3500482,0.009475857
0.0023690164,0.0,5.3942204e-06,6.476045e-05,1.847744e-06,6.556511e-06,0.0010089576,0.00011014938,0.9914974,0.00033935905
0.22342932,5.066395e-07,0.0015375316,0.00018107891,0.0005222559,0.0017926991,0.019595325,0.8296074,0.0019292533,0.027091533
0.0002270937,1.758337e-06,0.00079631805,0.0003260076,3.2782555e-07,4.1127205e-05,0.0022194386,5.9604645e-06,0.98953223,6.777048e-05
1.2934208e-05,5.662441e-07,0.00011315942,0.9995566,0.9710541,0.00048321486,0.0066168904,1.0073185e-05,0.0024533272,1.3977289e-05
0.9703395,0.0,7.1525574e-07,1.6391277e-06,3.6597252e-05,0.00039759278,0.00070390105,2.2292137e-05,0.00042054057,0.0025835037
0.9231298,2.9951334e-05,9.828806e-05,6.7949295e-06,1.2516975e-06,9.414554e-05,0.00046995282,3.8981438e-05,0.010427475,0.04390073
0.13565084,0.0,0.00020319223,2.5570393e-05,4.172325e-07,1.6868114e-05,0.0009714961,0.004167944,0.91184044,3.71933e-05
0.0005379021,0.00029930472,4.6998262e-05,0.00049108267,1.2218952e-06,0.0004117787,0.98656785,4.0382147e-05,0.011159182,0.00033554435
0.008035481,0.0,0.0003848672,3.33786e-06,4.3809414e-05,0.00010022521,0.006921351,0.9120695,0.0015617311,0.003918439
0.00018754601,3.9041042e-06,0.0003079772,0.99825644,0.0019668639,0.000667572,0.0041891634,4.0233135e-06,0.0018838942,0.00058069825
0.00014942884,5.158782e-05,0.00010314584,9.176135e-05,7.608533e-05,0.34749216,0.91820645,2.1100044e-05,0.0017866194,0.00012129545
0.00018706918,0.005005479,0.05039513,0.00066545606,0.7415044,0.007141024,0.470397,0.0023881197,0.73390853,0.0102852285
0.0008574128,0.00011411309,0.99448025,6.097555e-05,0.00018700957,2.8133392e-05,0.00045618415,0.0015370846,0.07123077,0.000108897686
0.00054746866,0.0,3.4868717e-06,2.7686357e-05,1.4901161e-07,5.990267e-06,0.00035849214,1.9580126e-05,0.99165154,0.00019529462
0.9873433,2.9802322e-08,1.0550022e-05,4.836917e-05,1.7881393e-07,0.00031644106,0.00024098158,0.000118136406,0.00031077862,0.0007955134
0.9770412,1.1920929e-07,2.2798777e-05,9.715557e-06,2.6226044e-06,0.00040704012,0.00025191903,0.0003245473,0.0002874434,0.009989947
0.00045108795,0.0,2.9802322e-07,0.9988458,1.7285347e-06,3.7640333e-05,0.00030994415,1.7881393e-07,1.0192394e-05,6.645918e-06
6.917119e-05,0.0,1.8894672e-05,0.99962324,0.0007289648,3.59118e-05,0.0008479655,6.2584877e-07,0.00022190809,9.447336e-06
0.0018787384,0.0,0.0001603663,2.7298927e-05,4.7683716e-07,9.924173e-06,0.0005611479,0.008110046,0.99378705,8.672476e-06
0.9759192,9.536743e-07,4.8577785e-06,0.000107586384,1.6391277e-06,0.00012913346,0.00037670135,1.0877848e-05,0.0013862252,0.008007407
0.98713565,1.1920929e-07,1.6629696e-05,3.582239e-05,3.5762787e-07,0.00042513013,0.0003684461,8.159876e-05,0.00028261542,0.0018286705
0.006108433,0.0001526475,2.861023e-06,0.0003041029,8.940697e-08,0.001738131,0.8974923,9.834766e-06,0.0027774572,0.00026780367
0.00031650066,0.029454231,0.0016924739,0.00013551116,0.0012254119,0.00033774972,0.49755126,7.104874e-05,0.00022360682,0.08443409
0.73860335,1.5795231e-06,7.531047e-05,2.9444695e-05,1.7881393e-07,5.7071447e-05,0.004737556,0.0021102726,0.5320268,0.0048994124
0.0022567213,0.0003517568,5.6624413e-05,0.006658405,1.0609627e-05,0.0009532273,0.9638755,7.2717667e-06,0.0037901103,0.00036525726
0.0013859868,4.053116e-06,0.00015097857,1.4573336e-05,0.00036919117,9.179115e-05,0.0058154464,0.00104779,0.8962964,0.043686986
0.53826046,1.7881393e-07,9.8347664e-05,1.8179417e-05,6.854534e-07,1.8447638e-05,0.00049477816,0.0011278689,0.5636337,0.0020124316
0.00035583973,1.4901161e-07,0.00020372868,0.002149284,1.4394522e-05,1.1354685e-05,0.00092080235,0.00011962652,0.9934911,0.00012785196
4.1127205e-06,0.98051476,0.017394304,0.020864844,4.1127205e-06,0.002157092,0.012631893,8.940697e-08,0.9527003,0.0015220642
0.0024822056,2.682209e-07,7.778406e-06,0.00018456578,2.413988e-06,2.2619963e-05,0.001349479,4.6044588e-05,0.98713386,0.0014198422
0.00279212,0.0003530383,0.981961,4.7326088e-05,0.0005711317,0.00015002489,0.00056803226,0.0029996037,0.04281169,0.0009355247
0.0004977584,0.7240427,0.09027517,0.04999754,0.0024216473,0.00046628714,0.0039012134,6.854534e-07,0.108550936,0.047453612
0.044585615,5.662441e-07,1.1354685e-05,0.00016948581,5.6922436e-06,5.736947e-05,0.0017416775,6.982684e-05,0.9074691,0.0031269789
2.9116869e-05,0.87238383,0.0006248951,0.00044316053,1.1026859e-06,0.00011533499,0.0016290247,2.0861626e-07,0.88762736,0.049874187
5.0216913e-05,0.9234891,0.007979572,0.00047668815,3.0755997e-05,0.0002502799,0.0018615127,2.3841858e-07,0.5432567,0.07691729
0.0017904937,0.02349943,0.727701,0.00013363361,0.0062125325,9.3370676e-05,0.000305295,2.7000904e-05,0.00586313,0.066400886
5.722046e-06,1.463294e-05,0.00038424134,3.2305717e-05,3.2484531e-06,0.9972119,0.008231014,1.1354685e-05,0.0006519854,7.420778e-05
2.6077032e-05,0.7626337,0.18974015,9.4771385e-06,0.008523136,0.0010698438,0.11314592,2.8967857e-05,0.0070132613,0.066054314
0.00018933415,0.0043153763,0.98929864,0.00019484758,0.00020545721,6.642938e-05,0.00015851855,2.3573637e-05,0.17536709,4.9233437e-05
0.92081,1.847744e-06,1.8537045e-05,1.4901161e-07,1.8805265e-05,0.00014576316,9.88543e-05,9.980798e-05,0.00012013316,0.20642966
2.3514032e-05,0.03553039,0.010187238,0.9652182,0.4954222,0.99166554,0.013757944,3.9041042e-06,0.02697134,0.00074994564
0.8381226,1.2516975e-06,1.5288591e-05,4.5388937e-05,0.0012514591,0.00033339858,0.00081047416,1.1980534e-05,0.0043055117,0.011544675
8.627772e-05,0.0352664,0.0003864467,0.9975696,0.00070631504,0.0069594085,0.34744355,2.9802322e-08,0.5093911,0.00012290478
0.009241074,0.0,3.9070845e-05,6.106496e-05,1.052022e-05,1.8805265e-05,0.00030264258,0.9870844,0.00016024709,0.0007352829
0.516739,8.6426735e-07,0.0013373792,4.991889e-05,1.0728836e-06,0.00017374754,0.0035576522,0.011921883,0.4707181,0.002014786
0.9198092,1.2010336e-05,0.004602015,7.3075294e-05,3.0100346e-06,0.0010217428,0.0012853742,0.0019958615,0.0014311671,0.0061442554
0.9915879,2.9802322e-08,1.4007092e-06,1.1086464e-05,2.682209e-07,0.00012117624,0.00020548701,5.4240227e-06,0.00016483665,0.0009793341
0.00037309527,4.6491623e-06,1.3291836e-05,0.0,7.849932e-05,7.748604e-07,4.4703484e-07,2.2649765e-06,0.00035497546,0.9977455
0.0048298836,2.503395e-06,0.00031474233,4.6491623e-06,4.1127205e-06,0.0019297302,0.61366236,0.15880638,0.007106751,0.0020160973
0.0012031496,3.7372112e-05,0.00073587894,0.00095549226,0.012078136,0.000947237,0.045249462,0.0014925897,0.97570527,0.0043275952
7.44462e-05,0.00024181604,0.0002322793,0.9962169,0.05412686,0.0063892007,0.012583047,1.5199184e-06,0.0042758286,0.015287995
0.09821582,2.348423e-05,0.006673485,1.3589859e-05,0.009411037,6.41644e-05,0.0018915832,0.018866539,0.54558206,0.056245357
0.00069859624,0.059565097,0.00217551,0.990986,0.014881432,0.0027520657,0.2888981,1.4901161e-07,0.36012244,0.0010592937
0.0002207458,0.0,0.00017538667,0.00021764636,1.7136335e-05,6.0796738e-06,0.0006350577,6.6936016e-05,0.99632454,8.34465e-06
0.99329305,0.0,1.1920929e-07,6.9737434e-06,2.9802322e-08,2.2470951e-05,0.00016891956,1.5795231e-06,0.0002142787,0.0011680126
0.0014435351,0.00012379885,2.2798777e-05,8.305907e-05,2.8312206e-06,0.0010978878,0.93338966,2.9802322e-06,6.0796738e-05,0.00017511845
0.95190525,2.9802322e-07,0.00022011995,1.7940998e-05,1.6093254e-06,0.00052937865,0.0002911985,0.009183735,0.0010089874,0.012371153
5.298853e-05,0.01719135,0.0031030178,0.9828046,0.9111655,0.9694756,0.08744967,7.867813e-06,0.009636253,0.0004915893
0.026945174,0.0040095747,0.040603667,6.854534e-07,0.0008068383,4.3153763e-05,9.062886e-05,0.00067451596,0.004974395,0.7290719
0.00012370944,0.0,2.5331974e-06,0.9961729,2.413988e-06,0.00016620755,0.00021997094,1.4901161e-06,3.0338764e-05,5.081296e-05
0.8281448,2.9802322e-08,1.4573336e-05,7.8082085e-06,2.0861626e-07,0.00034594536,0.009383142,0.02933082,0.0003875494,0.0006932914
0.035219938,0.0,6.16312e-05,2.30968e-05,1.5497208e-06,5.5462122e-05,0.00083759427,0.9812546,5.8591366e-05,0.00041010976
6.0498714e-06,6.467104e-06,1.0281801e-05,0.99963146,3.299117e-05,5.7548285e-05,0.0064296126,2.9802322e-08,0.03280735,8.061528e-05
3.2275915e-05,0.930583,0.0049473345,2.3841858e-07,3.516674e-06,0.00032639503,0.0013467968,6.854534e-07,0.1979622,0.07791504
3.0726194e-05,1.7285347e-06,1.1026859e-06,0.0,1.9073486e-06,1.1920929e-07,0.0,8.940697e-08,0.00025326014,0.99938047
0.00028431416,1.5735626e-05,2.8312206e-06,0.0,8.493662e-06,5.662441e-07,1.1622906e-06,1.1324883e-06,0.016257912,0.99406874
0.9058602,8.940697e-08,5.2452087e-06,4.887581e-05,1.1920929e-07,9.062886e-05,0.0005623698,1.1712313e-05,0.062128663,8.72612e-05
3.2007694e-05,5.930662e-06,0.0002169013,0.00019145012,1.8835068e-05,0.9941203,0.008750379,2.7120113e-06,0.00583601,6.1005354e-05
1.9937754e-05,2.2649765e-06,0.00012046099,0.9984081,0.99399006,0.0012588501,0.010328025,1.4960766e-05,0.0022487342,6.631017e-05
0.04149887,0.0,2.0563602e-05,3.963709e-06,1.4901161e-07,3.105402e-05,0.00035455823,0.97885334,4.4554472e-05,0.00012239814
0.02544251,0.0,1.6987324e-06,2.887845e-05,5.364418e-07,1.9788742e-05,0.0023455322,0.0001257956,0.97432756,0.0027023554
0.9892919,0.0,1.001358e-05,1.0699034e-05,0.0,0.00020697713,0.00015881658,0.0006759465,9.703636e-05,0.0029658973
0.0007030666,0.0,0.00016573071,0.0002771914,1.0669231e-05,3.3676624e-06,9.983778e-05,0.994094,0.009558588,0.00038415194
0.0015872419,3.8206577e-05,0.9958066,0.0012696385,6.2823296e-05,9.587407e-05,0.00014412403,0.0002965927,0.011848539,4.1604042e-05
0.0011450648,0.0,1.3381243e-05,3.8206577e-05,2.9802322e-07,5.7816505e-06,0.0005725026,3.8295984e-05,0.9930451,5.272031e-05
0.00016224384,0.0011598468,4.1544437e-05,0.0011920035,3.5762787e-07,0.00065243244,0.99038386,3.9041042e-05,0.010220766,0.0007902682
0.01403591,8.940697e-08,7.8082085e-06,2.3901463e-05,3.5762787e-07,3.528595e-05,0.00086921453,0.000114917755,0.951699,0.0012622476
5.0902367e-05,0.00027310848,0.0020848513,0.00016918778,7.5399876e-06,0.9977604,0.009794325,0.0032378137,0.0007183552,0.0011269152
0.9385508,1.4901161e-07,6.0260296e-05,6.0498714e-06,1.3411045e-06,0.00023177266,0.00026750565,0.003386557,0.0029608905,0.0110057
0.948503,8.940697e-08,8.687377e-05,3.7550926e-06,2.0861626e-07,0.00026893616,0.00015747547,0.009547293,0.00033786893,0.018087655
5.9962273e-05,0.13726708,0.012473375,0.0061056614,0.00012287498,0.0015670955,0.00672397,5.543232e-06,0.98505944,0.0031172335
0.00028023124,9.521842e-05,3.963709e-06,4.926324e-05,2.3841858e-07,0.00026640296,0.99112344,1.3113022e-06,2.926588e-05,7.8737736e-05
0.9963304,0.0,2.0861626e-07,4.172325e-07,2.9802322e-08,0.00012609363,0.00011739135,1.1175871e-05,1.12354755e-05,0.00067457557
3.835559e-05,2.9802322e-07,2.5331974e-06,0.9997117,9.5009804e-05,6.708503e-05,0.005975604,5.9604645e-08,0.0023269355,3.1888485e-05
0.00045326352,0.0,3.567338e-05,1.9729137e-05,4.172325e-07,2.8908253e-06,5.826354e-05,0.99683213,0.00017145276,0.0001271069
0.0008549094,2.9802322e-08,0.00013425946,0.00031909347,1.758337e-06,8.791685e-06,0.0010443032,3.20971e-05,0.9945816,1.6748905e-05
0.026111782,0.0036830008,0.000307858,1.9967556e-06,2.7388334e-05,0.00013676286,0.000695169,0.00035223365,0.4604661,0.44519898
7.033348e-05,0.0,1.7464161e-05,4.2915344e-06,1.2218952e-06,1.9669533e-06,8.1300735e-05,0.9981766,0.00015243888,3.8444996e-05
0.0005015135,0.0106933415,0.0011964738,0.0047709346,6.2286854e-06,0.0011600256,0.97288334,0.00013706088,0.0063264966,0.0038009286
0.017986417,0.0,8.821487e-06,7.483363e-05,1.1920929e-07,1.04010105e-05,0.0011370778,2.1338463e-05,0.9779813,3.20971e-05
2.938509e-05,2.503395e-06,2.0861626e-07,0.0,8.6426735e-07,0.0,0.0,0.0,0.000962317,0.99944067
0.00012224913,0.074270874,0.000580281,1.2934208e-05,0.0004912317,1.463294e-05,5.7548285e-05,5.364418e-07,0.14044732,0.9194293
0.008112162,1.7881393e-07,2.7120113e-05,0.00013563037,2.95043e-06,4.6610832e-05,0.002038449,0.00016832352,0.9721863,0.0014823079
0.000113129616,9.208918e-06,0.00022181869,0.00034311414,4.348159e-05,0.9852803,0.022726506,3.516674e-06,0.00069600344,7.095933e-05
0.99709547,0.0,1.7881393e-07,3.427267e-06,0.0,4.1097403e-05,0.00013789535,2.2947788e-06,2.4050474e-05,0.0003516972
0.9963187,0.0,7.4505806e-07,1.1265278e-05,0.0,6.380677e-05,0.00015729666,1.4275312e-05,0.00027126074,0.000118136406
0.9956707,0.0,1.3411045e-06,4.2915344e-06,0.0,9.024143e-05,0.00013631582,3.7640333e-05,8.100271e-05,0.0007686913
0.9744849,8.940697e-08,0.0003502667,5.0485134e-05,4.172325e-07,0.0007889867,0.00049868226,0.0022878945,0.00033390522,0.0006059408
0.00039079785,0.0,0.00010892749,0.00034672022,2.9623508e-05,7.927418e-06,0.0004737079,0.00017562509,0.99582493,1.603365e-05
0.98493785,2.3841858e-07,8.4728e-05,1.3440847e-05,1.7881393e-07,0.00038799644,0.0003323555,0.0015899539,0.0020830035,0.002261728
0.0008658469,0.00023937225,0.0020014048,0.0027526617,9.4503164e-05,0.9901484,0.006923169,0.00012174249,0.0017616749,0.0014056563
0.05319935,4.7683716e-07,4.7683716e-07,8.156896e-05,0.0,1.809001e-05,0.002112478,1.1920929e-06,0.93650675,0.0005287528
0.7053024,0.0,2.297759e-05,1.0222197e-05,4.23193e-06,0.0003041327,0.0001604259,0.25282127,8.839369e-05,0.0041407943
0.0007918477,0.7665651,0.14154142,6.854534e-07,0.00026512146,0.00021609664,0.0011956692,2.7120113e-06,0.003789425,0.20311496
8.568168e-05,0.7972478,0.040230155,4.7683716e-06,0.00011712313,0.000754565,0.004775226,1.4036894e-05,0.02658534,0.26333332
0.9962474,0.0,1.1026859e-06,1.1444092e-05,0.0,0.00018399954,0.00012505054,3.8325787e-05,2.732873e-05,0.0005066097
1.7881393e-05,0.0006456077,0.0057251155,0.0069212317,0.0046565235,0.99229634,0.029561132,0.0001412034,0.42523336,0.00037527084
0.9981345,0.0,1.1920929e-07,5.990267e-06,0.0,3.4302473e-05,0.00018543005,1.66893e-06,3.2544136e-05,0.00013068318
1.7940998e-05,3.695488e-06,0.00043785572,0.9989834,0.5083151,0.0002860427,0.006326914,1.6987324e-06,0.107310176,6.580353e-05
0.00072953105,4.258752e-05,0.00015282631,0.00017338991,0.0002808571,4.634261e-05,0.00044751167,9.328127e-05,0.96409965,0.029433608
0.865831,0.0,1.8894672e-05,2.115965e-06,2.9802322e-07,0.00017765164,9.086728e-05,0.16392317,0.000328511,0.0048108697
0.003186375,0.0,8.1181526e-05,1.8298626e-05,6.517768e-05,1.1473894e-05,0.0005429685,0.0024636686,0.9832272,0.0008212328
0.9980008,0.0,3.2782555e-07,2.4318695e-05,0.0,6.4224005e-05,0.00016462803,3.427267e-06,4.673004e-05,0.00016456842
0.0004580319,8.255243e-05,0.05100462,0.0023625195,0.119332194,0.00036656857,0.009408027,0.0012316108,0.97456765,0.00055107474
2.3245811e-06,9.268522e-06,1.0728836e-06,0.9991472,3.784895e-06,0.00014844537,0.010455966,2.9802322e-08,0.19831991,0.00024670362
0.99182063,1.7881393e-07,1.013279e-06,1.0669231e-05,8.940697e-08,4.8846006e-05,0.00021240115,5.3346157e-06,8.651614e-05,0.0031883419
0.008725792,3.5762787e-07,9.208918e-06,7.164478e-05,2.9116869e-05,5.1945448e-05,0.0024522543,7.072091e-05,0.9632523,0.0024496615
5.632639e-06,8.583069e-06,0.0003424585,1.2814999e-05,6.2584877e-07,0.99802774,0.007956237,2.9206276e-06,0.0014755726,1.8626451e-05
0.33525687,1.1920929e-06,2.0742416e-05,0.0004093945,2.3245811e-06,8.842349e-05,0.0040315986,9.775162e-06,0.7081551,0.00044807792
0.0033429265,5.811453e-06,4.3809414e-06,0.000223279,3.2782555e-07,4.643202e-05,0.0021054745,5.6624413e-06,0.9819331,0.0032237172
0.0004633069,1.4603138e-06,9.834766e-07,0.997868,2.413988e-06,0.00040400028,0.0073860288,2.682209e-07,0.0009163022,0.0005623996
0.9426724,0.0,1.9520521e-05,7.8082085e-06,5.811453e-06,0.00044295192,0.00048658252,0.001357466,0.00073197484,0.0012950301
0.00021889806,3.2782555e-07,3.2275915e-05,0.9977026,0.053430587,0.00053974986,0.039798647,4.0620565e-05,0.000113248825,0.0016769469
3.4809113e-05,1.0728836e-06,5.468726e-05,0.99940693,0.0026467443,9.033084e-05,0.0024549067,8.940697e-08,0.017289817,4.0233135e-05
0.00015723705,2.9802322e-08,6.347895e-05,3.3974648e-06,2.413988e-06,0.0004518926,0.28388077,0.70270234,0.00024658442,0.003058672
0.00085419416,7.212162e-06,2.1457672e-06,0.0,7.033348e-06,1.5795231e-06,2.503395e-06,7.480383e-06,0.01416254,0.9922974
3.296137e-05,2.0861626e-06,3.156066e-05,0.9994887,0.01358816,0.00018447638,0.0048506856,5.066395e-07,0.0034260452,9.23574e-05
0.03138712,5.662441e-07,5.5134296e-06,0.00023591518,3.0100346e-06,1.707673e-05,0.0014027059,1.6868114e-05,0.92590755,0.0021347702
3.3974648e-06,0.9834602,0.011965841,0.44941688,9.596348e-06,0.0019635856,0.009225607,0.0,0.9666944,0.005965352
4.5627356e-05,4.7683716e-07,7.95722e-06,0.99949706,0.001391232,0.00025320053,0.0012913644,1.1920929e-07,0.0005839169,4.6283007e-05
0.00014948845,9.357929e-06,6.2584877e-07,0.0,4.4107437e-06,1.1920929e-07,8.940697e-08,5.9604645e-08,0.0027769506,0.99840015
2.1398067e-05,0.0,0.0005106032,0.9969842,0.0149053335,4.684925e-05,0.00071686506,0.00023424625,0.0007607937,0.000111073256
0.00013029575,0.0003784001,3.695488e-06,0.002770871,0.0,0.0005609989,0.9643782,1.7404556e-05,0.5496254,0.0006863177
0.0058837533,0.00013267994,0.9877589,0.0010502636,0.0008637905,0.00036743283,0.00031742454,0.001083076,0.013494462,0.0005635917
0.9929342,0.0,1.3411045e-06,1.3709068e-06,5.9604645e-08,0.00019094348,0.00014308095,9.447336e-05,3.7789345e-05,0.0015406013
0.35508132,3.3915043e-05,1.5348196e-05,6.28531e-05,6.2584877e-07,4.5210123e-05,0.0015004873,6.02901e-05,0.5271768,0.039726615
0.00017160177,3.0219555e-05,0.0012123883,0.00014546514,3.4868717e-06,0.99408287,0.006948501,6.824732e-05,0.00060233474,0.0002129972
0.00045371056,1.4901161e-06,1.4066696e-05,0.0,0.00069740415,1.7881393e-07,6.854534e-07,7.390976e-06,0.0016524792,0.98860157
0.9971329,0.0,1.1920929e-07,2.682209e-06,0.0,3.0249357e-05,7.498264e-05,6.854534e-06,1.5974045e-05,0.0004670918
0.0017165542,0.0,2.413988e-06,3.772974e-05,1.4901161e-07,6.28829e-06,0.0005940199,2.2739172e-05,0.9926138,0.00013649464
0.9454404,1.9073486e-06,4.0471554e-05,2.1487474e-05,4.4047832e-05,0.00037553906,0.0005237162,0.00016093254,0.002643317,0.018565327
0.93438303,1.7881393e-07,3.1590462e-06,5.8233738e-05,2.9802322e-08,7.537007e-05,0.0004131198,1.5348196e-05,0.03765595,0.0010969937
0.00022491813,0.00047910213,6.0796738e-06,0.00041759014,2.0861626e-07,0.00033718348,0.9951842,2.2649765e-06,0.0014986992,7.581711e-05
0.4126572,0.00015458465,0.9149448,0.0016010702,5.760789e-05,0.0014717281,0.0006041825,0.011200845,0.0031234026,0.003645122
0.947768,2.2053719e-06,0.00067564845,5.5640936e-05,7.7068806e-05,0.0014261603,0.00055488944,0.0013093948,0.00016874075,0.0115327835
0.0012394786,0.002388209,0.00019749999,2.0861626e-07,0.0012668967,4.082918e-06,1.1444092e-05,1.9967556e-06,0.002678454,0.97971654
1.6212463e-05,0.9051702,0.013421416,9.089708e-06,8.955598e-05,0.00025576353,0.010960847,8.34465e-07,0.07884988,0.16406244
0.9608792,3.3974648e-06,2.9802322e-05,1.0311604e-05,1.335144e-05,0.00018009543,0.00028520823,3.8295984e-05,0.00022885203,0.03155443
3.799796e-05,0.00010147691,0.003989488,0.99759877,0.032022536,2.926588e-05,0.010227561,1.1920929e-07,0.8133024,8.046627e-06
0.1864681,0.00091311336,0.9394011,0.00013324618,2.3037195e-05,0.00052800775,0.0011821389,0.0035640597,0.019507438,0.00086194277
0.01410535,1.1920929e-07,6.765127e-06,7.897615e-06,5.364418e-07,6.5118074e-05,0.0010987818,0.00020191073,0.93050385,0.0051032305
8.165836e-06,0.3597689,0.70839053,0.66202205,0.0054943264,0.00054961443,0.00081667304,4.172325e-07,0.90307796,0.00025898218
0.76009566,0.0,0.0010019839,4.7445297e-05,1.1175871e-05,0.00035446882,0.00021317601,0.19203478,0.0013096929,0.0056738853
0.00024113059,8.821487e-06,0.8482004,0.0012441874,0.0007221997,9.4264746e-05,0.0028912127,0.0015747249,0.9534855,7.212162e-06
0.98381555,2.9802322e-08,4.172325e-07,1.0669231e-05,8.34465e-07,5.7846308e-05,0.00033819675,6.2584877e-07,0.00049707294,0.0004121065
1.6272068e-05,0.0044285953,0.00025871396,0.99337405,1.7285347e-05,0.0014475882,0.015887648,5.9604645e-08,0.91210294,0.0003027916
6.851554e-05,5.066395e-07,1.5288591e-05,0.9996456,0.0008197129,0.00064241886,0.006832242,2.682209e-07,0.00012999773,0.00017789006
0.0007586479,9.804964e-06,3.0338764e-05,0.0005836189,1.3411045e-06,8.9854e-05,0.0074020326,1.2457371e-05,0.98978245,0.0016506612
0.000107795,0.84290206,0.01757583,0.99779767,0.15451717,0.12443364,0.6479885,2.3841858e-07,0.08574033,0.0004056394
0.9926995,0.0,1.0728836e-06,5.155802e-06,2.026558e-06,0.00030645728,0.00039827824,1.8060207e-05,4.6908855e-05,0.00034341216
5.2452087e-06,0.9637488,0.014411449,0.00027287006,2.2143126e-05,0.0010742843,0.004678458,2.9802322e-07,0.7523229,0.01793161
0.99872714,0.0,2.9802322e-08,2.9206276e-06,0.0,2.1338463e-05,0.00013428926,8.34465e-07,6.7055225e-06,8.422136e-05
0.00080412626,2.9802322e-08,0.000123173,0.00015446544,2.6106834e-05,1.9431114e-05,0.00051927567,0.00046402216,0.99095434,0.00015377998
0.00053986907,0.020467311,0.00057944655,0.00056031346,8.171797e-05,0.00026792288,0.0024106205,6.467104e-06,0.8908899,0.15528181
1.847744e-05,0.9657111,0.007626474,0.66245,5.236268e-05,0.000972867,0.0025042892,0.0,0.66165584,0.030062556
0.15799916,0.0,2.6345253e-05,8.314848e-06,6.377697e-06,1.40964985e-05,0.0014758706,0.003322035,0.85721076,0.0019000769
4.9471855e-06,6.464124e-05,0.0018128455,0.021142393,0.00078335404,0.99819386,0.006266266,7.1525574e-07,0.013059229,8.276105e-05
0.9531684,0.0,3.784895e-06,4.7683716e-07,3.7550926e-06,0.00045835972,0.00013139844,0.0027020574,4.3988228e-05,0.010068655
7.110834e-05,0.0,0.00085648894,3.427267e-06,4.3213367e-06,3.5762787e-06,7.0273876e-05,0.8366021,0.9945628,9.5665455e-06
1.3411045e-05,0.95980453,0.015324086,0.021238625,5.2422285e-05,0.001075238,0.011157483,3.5762787e-07,0.87686944,0.038817793
0.99505424,1.7881393e-07,6.198883e-06,1.9609928e-05,8.940697e-08,0.00018045306,0.0002514422,1.49309635e-05,0.00010037422,0.0009048283
7.104874e-05,0.00972122,0.0053084493,0.008058101,0.004826665,0.9681314,0.25094414,3.477931e-05,0.62407386,0.00017881393
0.0012088418,8.940697e-08,5.6415796e-05,0.0007175207,2.3543835e-06,7.122755e-06,0.0013087094,2.1874905e-05,0.9945153,4.1544437e-05
0.00011155009,0.9250631,0.02631557,0.046530038,0.0010015368,0.0016906857,0.004765421,1.8179417e-06,0.46570176,0.19736734
0.0005659163,0.0120203495,0.056987137,0.40518922,0.123735994,0.9842081,0.018791527,8.520484e-05,0.0012197495,0.004536897
0.00037297606,1.5199184e-06,6.7949295e-06,2.9802322e-08,2.232194e-05,1.1920929e-06,1.9967556e-06,0.00011509657,0.0034097135,0.99193674
0.0091201365,1.9341707e-05,0.0033618808,0.9663935,8.311868e-05,8.2463026e-05,0.0025677085,1.0728836e-06,0.3928076,4.440546e-05
0.00092062354,5.9604645e-08,9.000301e-06,7.620454e-05,2.413988e-06,5.069375e-05,0.0013741553,3.644824e-05,0.9857923,0.0008843243
0.0002642572,0.0,6.446242e-05,8.073449e-05,4.4703484e-07,1.4305115e-06,0.0004400313,1.3977289e-05,0.99707603,2.2947788e-06
0.0005263388,4.172325e-07,1.5079975e-05,0.9988689,7.212162e-06,5.2064657e-05,0.0020646155,2.682209e-07,0.00025698543,2.270937e-05
0.00010436773,0.00027632713,0.0020624697,4.6610832e-05,9.179115e-06,0.9453759,0.027501225,0.0011762679,0.25150532,0.0013591051
0.00029474497,0.00071799755,0.99341476,0.0034703016,0.0046535432,0.00010287762,0.0001835823,7.596612e-05,0.0876165,0.00023892522
0.69254684,2.9802322e-08,8.144975e-05,5.2452087e-06,5.6892633e-05,0.00038799644,0.0002874136,0.09968561,0.0020663142,0.048598796
4.4584274e-05,0.006886363,0.00024479628,1.475215e-05,5.3048134e-06,0.0007479787,0.97187066,6.631017e-05,0.006145686,0.0026315153
0.9969459,0.0,3.5762787e-07,1.9550323e-05,2.9802322e-08,0.00011137128,0.00025895238,2.7120113e-06,8.380413e-05,0.00011187792
7.8469515e-05,2.9802322e-07,9.834766e-07,0.9992081,3.1530857e-05,0.0001412332,0.003928691,0.0,0.0018090308,0.000105172396
0.0009716451,0.014302522,0.00031918287,0.001388669,1.7285347e-06,0.0003978014,0.85449004,0.0004182458,0.0052962303,0.030951738
0.00028836727,0.0,1.218915e-05,0.0002616644,3.2782555e-07,5.066395e-07,0.0003707111,2.7805567e-05,0.9984747,9.834766e-07
0.027068257,1.2755394e-05,7.838011e-06,0.00038605928,5.990267e-06,5.90384e-05,0.0027306974,2.2888184e-05,0.92230177,0.016048074
9.3221664e-05,0.6462492,0.3588155,0.84302306,0.0136111975,0.0018050075,0.026187032,8.940697e-07,0.8958497,0.001834631
0.9938673,0.0,1.3709068e-06,3.2484531e-06,2.9802322e-08,6.696582e-05,9.3489885e-05,2.5719404e-05,9.071827e-05,0.0018743277
0.9857451,3.5762787e-07,1.5735626e-05,0.0003477335,0.0,0.00031599402,0.00063470006,5.143881e-05,0.0013495684,0.0007919669
0.98500586,1.1920929e-07,1.1622906e-06,7.867813e-06,5.9604645e-08,2.297759e-05,0.00020244718,1.2934208e-05,0.0019590855,0.005264491
0.00072178245,2.9802322e-07,0.00015249848,0.00033518672,0.00015923381,2.2739172e-05,0.0007445216,0.000109642744,0.98693085,0.00041526556
0.012474418,2.9802322e-07,1.5199184e-05,0.00032001734,1.6629696e-05,4.4971704e-05,0.0019808412,3.632903e-05,0.9479326,0.0008019805
0.0002475679,0.0,0.00017651916,7.110834e-05,5.0365925e-06,2.8908253e-06,0.00022062659,0.9956298,0.0056684315,0.0002168715
0.9956955,2.9802322e-08,1.1920929e-07,2.6255846e-05,5.9604645e-08,3.093481e-05,0.0001847744,1.0728836e-06,6.1541796e-05,0.00086447597
8.4489584e-05,0.26675114,0.45760202,0.27796468,0.086399734,0.9416132,0.090177804,0.00044631958,0.21219662,0.007666886
0.45701465,6.854534e-07,0.0001155138,0.000107079744,1.2665987e-05,0.00015595555,0.0009937584,0.0009518862,0.44905132,0.006421834
0.62368286,0.00022447109,0.21065953,0.0010957718,0.0029264092,0.0017547905,0.0039502084,0.013632596,0.012261927,0.013368279
0.0016655922,8.493662e-06,0.00019413233,0.00041875243,0.0002593696,0.00015646219,0.002584517,0.00010943413,0.9530176,0.008220196
0.00010347366,0.0,0.00021311641,0.00055396557,0.0002386868,1.1831522e-05,0.00048783422,0.00022053719,0.99589103,8.59797e-05
0.0016299486,0.00022765994,8.7320805e-05,0.0038641393,0.009319365,0.0024950504,0.9597591,1.3619661e-05,5.8710575e-05,0.00093621016
0.012710631,4.7683716e-07,9.62615e-06,2.2441149e-05,2.0861626e-07,1.218915e-05,0.0006738603,0.0001989603,0.9746313,0.006145984
0.965513,7.4505806e-07,1.3232231e-05,1.54078e-05,7.301569e-06,0.00021547079,0.0003694892,0.00011265278,0.0006982386,0.021145403
0.98575485,2.9802322e-08,3.0994415e-06,1.7553568e-05,6.8843365e-06,0.0007094741,0.0004887283,6.991625e-05,4.503131e-05,0.0020876229
0.024659872,0.0,1.4156103e-05,1.0877848e-05,6.145239e-05,4.386902e-05,0.0017285645,0.9609082,0.00037962198,0.001032412
0.0002861023,0.00021386147,0.0005823672,0.0030501187,4.0858984e-05,0.99034905,0.0130723715,4.261732e-06,0.00043866038,0.00011828542
0.040067464,2.9802322e-07,1.9699335e-05,2.2560358e-05,8.940697e-08,6.598234e-05,0.00988552,0.00018969178,0.94333625,0.00097578764
0.00050094724,1.8179417e-06,0.0035188496,0.00078204274,0.0012761652,6.276369e-05,0.001975894,0.00075268745,0.99041784,0.00023129582
1.2516975e-05,0.0053756833,0.86610913,0.03613162,0.007586181,0.0002309382,0.0011239052,8.225441e-05,0.9628725,0.00014314055
2.1189451e-05,0.0016233325,1.385808e-05,0.99237007,1.9669533e-06,6.92606e-05,0.23520666,0.0,0.84419084,9.006262e-05
5.2303076e-05,1.66893e-06,6.854534e-07,0.0,4.142523e-06,8.940697e-08,0.0,8.940697e-08,0.00041753054,0.999311
0.013439745,0.00016617775,0.05998677,0.016198635,0.022785842,0.00045594573,0.014571726,0.004916072,0.927789,0.0016907156
0.07435763,8.621812e-05,0.00027251244,1.13248825e-05,0.00017994642,0.0016051531,0.057702065,0.005666733,0.014865726,0.18253234
0.97582763,2.682209e-07,0.00015589595,3.4600496e-05,5.066395e-07,0.0007163882,0.00028848648,0.0030024946,0.00032648444,0.00494954
0.97071904,8.940697e-08,9.804964e-06,1.3440847e-05,3.3974648e-06,0.000613302,0.0004953742,0.00056782365,0.0005707145,0.0049917996
0.00021103024,0.835122,0.05548531,4.7683716e-07,0.00015705824,0.0009094775,0.0071891844,2.0802021e-05,0.039817154,0.10529876
0.00039246678,1.1533499e-05,2.2053719e-06,8.940697e-08,7.5399876e-06,4.7683716e-07,8.34465e-07,8.34465e-07,0.007711619,0.9952497
8.85129e-06,6.0796738e-06,0.9933,0.010506898,0.037329018,2.3573637e-05,0.00039741397,0.0013436675,0.95236325,4.5895576e-06
0.6760595,2.7447939e-05,0.5327517,0.00043198466,7.4505806e-06,0.0011633933,0.0018451512,0.08133143,0.052674234,0.0008045435
3.5762787e-05,0.0051859915,0.039982647,0.9891125,0.0038670897,0.00026467443,0.011121511,1.7285347e-06,0.8016256,0.0002028048
4.0233135e-06,0.9844016,0.013894796,6.0796738e-06,2.0563602e-06,0.0013064146,0.0028338134,2.0861626e-07,0.34999633,0.014659792
0.0006492436,0.0,5.802512e-05,0.00023922324,1.6093254e-06,5.2452087e-06,0.00044164062,0.00011372566,0.9961461,2.1159649e-05
0.0002670884,0.0068494678,0.9620936,0.017912865,0.0044332743,0.30892313,0.01627326,0.0008042753,0.117189676,0.00021544099
0.5032434,5.662441e-07,6.425381e-05,3.0517578e-05,4.082918e-06,1.6480684e-05,0.00024026632,0.006013036,0.40318447,0.05865532
0.07786754,0.0,0.0010994375,1.3649464e-05,4.440546e-06,5.6773424e-05,0.0024264157,0.9808911,0.0020840764,0.0010160208
0.9634839,0.0,9.387732e-06,4.0233135e-06,0.0,7.399917e-05,9.149313e-05,0.045783073,2.6613474e-05,0.00028979778
6.198883e-06,0.0007567704,0.0022209883,0.00048211217,0.00013059378,0.99481124,0.022487551,0.0003556311,0.9036758,0.00028562546
0.093624085,0.0,7.987022e-06,5.64456e-05,4.172325e-07,5.3048134e-06,0.0010069907,0.0001885593,0.93119246,0.00030067563
0.0031891763,8.940697e-08,6.556511e-06,7.3611736e-06,8.34465e-07,3.1352043e-05,0.00046661496,0.00012716651,0.96628195,0.0038814545
0.033935905,1.7851591e-05,2.0623207e-05,6.043911e-05,1.2814999e-05,3.8951635e-05,0.0027585626,6.812811e-05,0.9099122,0.029198438
3.9041042e-06,0.0010942221,0.006877452,0.00043201447,0.000118523836,0.9980767,0.018807858,0.00014737248,0.6404987,0.0002271235
2.2828579e-05,0.017317176,0.002042532,0.016141474,0.0003244877,0.0019265115,0.9573001,1.0728836e-06,0.0017103553,0.0038365722
0.68639606,6.109476e-06,3.9994717e-05,6.556511e-07,0.0017868876,0.00037908554,0.0006381273,0.0009857118,0.0014808774,0.4525499
0.00036749244,0.0,4.3034554e-05,5.6624413e-05,2.115965e-06,1.5854836e-05,0.00034931302,0.99635863,0.00016126037,0.0006619394
3.0130148e-05,0.0,2.6762486e-05,1.0699034e-05,0.99701726,1.6868114e-05,0.0010766685,1.1950731e-05,0.0028584898,0.00075379014
7.57575e-05,0.17110217,0.008708179,0.000649631,4.917383e-06,0.40666145,0.71501,0.002718091,0.56121,0.008150876
0.98869324,0.0,3.2782555e-07,1.1026859e-06,2.3841858e-07,6.535649e-05,0.00035238266,2.771616e-06,0.00021007657,0.0010611117
3.516674e-06,2.9802322e-08,1.7285347e-06,0.9994031,3.8683414e-05,7.301569e-06,0.0012996793,8.940697e-08,0.049383134,9.894371e-06
0.001162678,0.002031386,0.0033836365,0.00020965934,0.006075859,0.00087821484,0.003561616,0.00012367964,0.8470056,0.0920763
0.0017412007,7.453561e-05,0.9879013,0.00032508373,0.0010677874,0.00030109286,0.0027503967,0.008057952,0.12742248,0.0001745522
0.0003670454,0.00021743774,3.7133694e-05,0.00018635392,1.4901161e-07,0.0004107952,0.99236774,0.0002721548,0.00855881,0.0005544424
0.38833508,4.6491623e-06,9.655952e-06,3.8415194e-05,7.4505806e-07,8.955598e-05,0.0019368529,2.3901463e-05,0.45002344,0.012921244
0.00016376376,0.0152255,0.0396111,0.00038442016,0.0004234314,0.42273894,0.73064077,0.0016023815,0.009786755,0.0075695217
1.7732382e-05,0.00014561415,0.0011798143,0.00046521425,0.0003274083,0.99095535,0.057551473,2.6196241e-05,0.06869474,9.047985e-05
0.9580121,1.1920929e-07,3.516674e-06,2.413988e-06,0.0001771152,0.00020572543,0.0005775988,1.4454126e-05,0.00019100308,0.0058228374
0.00034832954,1.4990568e-05,2.026558e-06,0.0,1.4036894e-05,2.0861626e-07,1.4901161e-07,2.0861626e-07,0.0019129515,0.99780625
2.6345253e-05,0.00059372187,0.002802074,0.00097361207,0.00020104647,0.9919679,0.02663064,0.00046434999,0.7068737,0.00033292174
0.99538815,0.0,3.0100346e-06,5.930662e-06,0.0,0.00014853477,9.924173e-05,9.047985e-05,2.527237e-05,0.00063732266
4.2766333e-05,0.00035342574,0.9687793,0.99184555,0.0075980723,0.00011712313,9.790063e-05,1.1622906e-06,0.029363334,5.3942204e-06
0.14405674,1.4901161e-07,5.751848e-06,1.8060207e-05,2.0861626e-07,1.7285347e-05,0.0027490854,0.00019022822,0.8938766,0.0022089481
0.2583912,0.0,2.9355288e-05,1.6599894e-05,1.3113022e-06,9.697676e-05,0.00021150708,0.8403977,0.00012165308,0.001193583
0.0006174147,3.5762787e-07,1.6868114e-05,1.4901161e-07,0.00042581558,1.0162592e-05,2.9981136e-05,0.042653948,0.00023254752,0.93670547
0.15693992,7.4505806e-07,6.753206e-05,0.00016731024,6.815791e-05,7.849932e-05,0.0033431947,0.00565511,0.8510589,0.015525937
0.96662545,5.364418e-07,2.95043e-05,5.453825e-06,1.4305115e-06,0.0002309084,0.00022298098,0.0006196201,0.000928849,0.024735987
0.2531202,0.00062683225,0.0016618371,5.9604645e-07,0.00022566319,4.839897e-05,0.00010672212,0.00041911006,0.006046951,0.83953273
0.00083753467,2.9802322e-08,1.4215708e-05,0.00022000074,0.9953071,0.000121861696,0.0074869096,4.965067e-05,0.00237149,0.0010613203
0.99075854,2.0861626e-07,7.4505806e-06,2.0712614e-05,2.682209e-07,0.00025090575,0.00024718046,3.966689e-05,0.00024223328,0.002701819
0.0007646084,0.12923577,0.0931668,0.0038083196,0.007492095,0.0017459393,0.11154175,8.404255e-05,0.6516171,0.01917085
0.96933657,1.1920929e-07,1.847744e-06,0.0002885759,8.940697e-08,0.00010019541,0.00041267276,1.2218952e-06,0.010454237,0.0001437068
0.008148849,1.424551e-05,5.066395e-06,0.00013768673,1.1712313e-05,8.028746e-05,0.003215462,1.9073486e-05,0.9509717,0.025511503
1.7821789e-05,0.9585929,0.012878478,0.9620673,0.00010332465,0.0022316277,0.07926768,0.0,0.9212723,0.0006951988
0.9970361,0.0,1.3113022e-06,3.3676624e-06,0.0,0.0001501441,0.00019416213,2.425909e-05,5.5402517e-05,0.0001269877
0.966254,7.4505806e-07,6.917119e-05,4.172325e-07,1.4007092e-06,0.00027096272,8.7589025e-05,0.0006147623,8.907914e-05,0.06547016
0.99327433,0.0,4.6491623e-06,1.0669231e-05,0.0,8.571148e-05,9.8735094e-05,0.00048542023,7.352233e-05,8.150935e-05
0.96306634,7.748604e-07,7.688999e-06,5.0991774e-05,1.013279e-06,0.00010317564,0.00034567714,1.809001e-05,0.005632162,0.0050962567
0.1171841,0.00014585257,3.772974e-05,2.1189451e-05,0.00071519613,0.00011089444,0.0012013018,0.000664413,0.47228855,0.7038251
0.9893621,1.4901161e-07,9.62615e-06,1.4066696e-05,1.3709068e-06,0.00048190355,0.0005005896,9.161234e-05,6.622076e-05,0.0018440187
0.98870385,0.0,1.1026859e-06,4.23193e-06,4.172325e-07,0.00018152595,0.00022539496,3.8653612e-05,0.00024122,0.0007325411
2.938509e-05,2.503395e-06,2.0861626e-07,0.0,8.6426735e-07,0.0,0.0,0.0,0.000962317,0.99944067
0.00037309527,4.6491623e-06,1.3291836e-05,0.0,7.849932e-05,7.748604e-07,4.4703484e-07,2.2649765e-06,0.00035497546,0.9977455
9.745359e-06,0.9690901,0.032062173,0.4222963,2.041459e-05,0.0075618923,0.0057558417,2.9802322e-08,0.12295157,0.0021243095
0.00012785196,0.842905,0.049907565,2.682209e-07,4.1872263e-05,0.00032380223,0.0031766891,3.9041042e-06,0.010003835,0.12875822
8.124113e-05,7.748604e-07,0.00014603138,9.983778e-06,0.99720657,1.8656254e-05,0.0023894906,7.390976e-06,0.046053022,0.00055614114
0.99368334,0.0,6.854534e-07,2.771616e-06,1.7881393e-07,0.00034606457,0.00020447373,4.3332577e-05,1.5944242e-05,0.0003848374
0.00019299984,2.8967857e-05,8.6426735e-05,0.0009510219,1.41859055e-05,0.0007892549,0.6933012,0.00019773841,0.9622328,0.00038984418
0.99796766,0.0,8.046627e-07,1.1533499e-05,0.0,0.00019994378,0.00018820167,1.30832195e-05,1.21593475e-05,7.7575445e-05
2.2292137e-05,0.0,0.00011244416,0.9972062,7.364154e-05,2.360344e-05,0.00014859438,1.2755394e-05,0.0007670224,1.6123056e-05
3.33786e-06,2.7537346e-05,0.8566787,0.0060174763,0.86469746,0.000104635954,0.0040803254,0.0005646348,0.89902973,5.185604e-05
0.00024372339,0.037406683,0.09454602,0.023457855,0.02253583,0.020757884,0.00151667,0.00020945072,0.05260572,0.5765161
0.00037309527,4.6491623e-06,1.3291836e-05,0.0,7.849932e-05,7.748604e-07,4.4703484e-07,2.2649765e-06,0.00035497546,0.9977455
0.00015580654,0.0,5.662441e-07,0.99953336,5.632639e-06,4.0978193e-05,0.0020723343,1.7881393e-07,0.00010681152,3.990531e-05
0.9730896,0.0,1.14142895e-05,1.21593475e-05,3.5762787e-06,0.00077977777,0.00037837029,0.0005700588,9.357929e-05,0.0019317865
0.017199427,2.0861626e-07,2.7149916e-05,3.439188e-05,2.6524067e-06,6.905198e-05,0.0010783672,0.00023055077,0.9498176,0.001846075
0.98876995,0.0,5.751848e-06,5.5730343e-06,5.9604645e-08,0.0001835227,0.00033470988,0.0004504621,0.00010859966,0.0026703775
0.9957793,0.0,1.1622906e-06,1.2874603e-05,8.940697e-08,0.00015708804,0.00027751923,1.4841557e-05,0.00012654066,0.00033167005
0.042900294,0.0011218786,0.000119805336,0.0017558634,1.4007092e-06,0.0031288862,0.9147409,0.00031507015,0.0088888705,0.0023362935
0.04617822,0.0009497404,0.0023044646,0.0345442,0.0827187,0.0007157326,0.012703508,0.00029248,0.45405447,0.041269273
0.002954185,2.1755695e-06,3.6120415e-05,0.00019174814,1.937151e-06,0.00013360381,0.039596736,4.3928623e-05,0.98672664,0.00019037724
0.9753109,0.0,2.2739172e-05,5.275011e-06,8.6426735e-07,0.0006982982,0.00020298362,0.0033600628,5.5223703e-05,0.0043991804
0.00010931492,0.0146665275,0.0004852116,0.99904823,0.00033527613,0.010313004,0.0217219,2.9802322e-08,0.1311394,0.0011419356
0.00010553002,0.3128893,0.0005084574,0.9836409,8.314848e-06,0.0027121902,0.49809563,8.940697e-08,0.63997173,0.001095891
0.000106334686,0.00039839745,0.9569231,0.97455454,0.00060397387,6.130338e-05,0.00014546514,6.556511e-07,0.005870968,1.0222197e-05
0.7613132,2.5629997e-06,0.0010748804,3.0070543e-05,8.821487e-06,0.00058063865,0.0009931624,0.0040008426,0.053203583,0.013096064
0.0022402406,1.7881393e-07,1.66893e-06,0.0005989373,6.854534e-07,1.835823e-05,0.0015512407,4.172325e-06,0.9840661,0.00048089027
0.011132389,0.000495106,9.331107e-05,0.0005437434,7.8082085e-06,0.00022220612,0.011140138,3.1799078e-05,0.9470954,0.017502576
0.010337621,2.9802322e-07,7.7188015e-06,9.712577e-05,3.5762787e-07,4.658103e-05,0.0019713044,1.8417835e-05,0.9599893,0.0008557737
0.9919404,0.0,1.5497208e-06,3.5464764e-06,2.9802322e-07,0.00016343594,0.00022232533,1.2874603e-05,8.5413456e-05,0.0009505451
0.0015899837,0.58178365,0.0022535026,0.9856177,0.000104516745,0.01352635,0.24090579,5.9604645e-08,0.64345837,0.0012602508
7.4207783e-06,0.15354514,0.045464158,0.0027617514,0.0026234686,0.018287987,0.18078375,8.824468e-05,0.9536511,0.0037646294
0.03535649,2.9802322e-08,1.7553568e-05,1.2099743e-05,8.940697e-08,5.2452087e-06,0.0008190572,0.00012788177,0.9429183,0.00018697977
0.997416,0.0,5.9604645e-08,1.0728836e-06,2.9802322e-08,7.7843666e-05,0.00014919043,3.8146973e-06,4.5895576e-06,0.0004067719
2.0980835e-05,3.4868717e-06,0.0011908412,0.998106,0.000107079744,3.695488e-06,0.0021215677,8.940697e-08,0.67858076,3.993511e-06
2.8371811e-05,1.2755394e-05,0.013870746,0.999701,0.025276512,8.022785e-05,0.00095808506,1.7881393e-07,0.05129546,7.301569e-06
1.40964985e-05,0.8603819,0.02577275,3.5762787e-07,1.2665987e-05,0.0009584427,0.033619165,1.5199184e-06,0.0008774698,0.023787111
0.0048916936,4.440546e-06,0.0006515384,0.0002195239,6.082654e-05,7.56681e-05,0.00050392747,0.00037956238,0.9744929,0.0007903278
0.00032061338,0.66024244,0.0063798428,0.03240794,5.632639e-05,0.0072440803,0.4840113,7.2956085e-05,0.8017976,0.017390609
0.00012174249,0.9180211,0.002733469,9.834766e-07,8.6426735e-07,7.224083e-05,0.00018507242,8.940697e-08,0.07665482,0.1494484
0.9833137,1.4901161e-07,3.33786e-06,4.7683716e-05,1.7881393e-07,0.0002052784,0.00029248,1.7791986e-05,0.0010992289,0.00095513463
0.00037309527,4.6491623e-06,1.3291836e-05,0.0,7.849932e-05,7.748604e-07,4.4703484e-07,2.2649765e-06,0.00035497546,0.9977455
0.00077342987,0.00022742152,8.821487e-06,1.1920929e-07,5.7131052e-05,1.4603138e-06,2.7120113e-06,2.0861626e-06,0.026107728,0.99208605
0.00026223063,0.0,0.00012177229,5.725026e-05,9.23872e-07,4.261732e-06,0.00061380863,0.00013953447,0.9975229,4.440546e-06
6.520748e-05,1.6093254e-06,1.013279e-06,0.0,6.1690807e-06,5.9604645e-08,5.9604645e-08,0.0,0.0004068911,0.99912024
0.9954959,0.0,1.4901161e-07,1.2516975e-06,2.9802322e-08,0.00017282367,0.00012770295,3.6597252e-05,9.179115e-06,0.00037825108
0.9959799,2.9802322e-08,1.9669533e-06,1.4305115e-05,2.9802322e-08,0.00015154481,0.00013571978,1.9550323e-05,5.3614378e-05,0.0008863807
0.0026414394,8.940697e-08,4.553795e-05,0.00015854836,1.1026859e-05,1.564622e-05,0.0011090338,0.00033929944,0.9882636,0.0004502535
0.00019547343,0.84361756,0.05093667,7.390976e-06,5.4597855e-05,0.0003914833,0.00079110265,5.662441e-07,0.015553653,0.19077551
0.008938253,8.940697e-08,0.0008558035,0.00012984872,1.4007092e-06,9.971857e-05,0.0012773871,0.088948846,0.9837504,0.0002872944
1.0818243e-05,0.078864664,0.10425633,0.012353569,0.029042542,0.9875077,0.05107689,0.00021705031,0.6659752,0.0019815266
0.00013789535,0.036842406,0.034322858,0.00085794926,1.3887882e-05,0.9923837,0.017668813,0.0007285476,0.16951898,0.001283139
0.003630966,2.9802322e-08,6.5267086e-06,0.00015065074,7.748604e-07,9.417534e-06,0.00085249543,3.1471252e-05,0.9853582,0.00030639768
0.94935334,2.554059e-05,0.00026643276,1.7881393e-06,1.9073486e-06,9.906292e-05,0.00015938282,4.7951937e-05,0.00031277537,0.07352579
0.1051082,8.1032515e-05,0.97960305,0.0004697144,1.6659498e-05,0.0004951954,0.00031387806,0.0037245154,0.0027201474,0.00066545606
0.9931227,2.9802322e-08,5.364418e-07,2.5570393e-05,0.0,2.8818846e-05,0.00027179718,1.2516975e-06,0.0017735362,0.0002349019
0.088154495,3.772974e-05,1.4215708e-05,0.0013719499,9.179115e-06,0.00015982985,0.003033489,0.0004002154,0.7160449,0.122889906
8.523464e-06,0.95130026,0.048567116,0.011074841,0.00041770935,0.0026892424,0.019702256,6.2584877e-07,0.8629397,0.011978209
0.000108867884,0.0,1.4901161e-07,0.99891806,3.33786e-06,4.053116e-06,0.0002821684,5.066395e-07,0.00010922551,3.0100346e-06
5.6505203e-05,0.14515948,0.8156562,0.27033877,0.32178843,0.003014207,0.010527641,5.057454e-05,0.8660587,0.0010793209
0.9971614,0.0,4.7683716e-07,8.821487e-06,0.0,7.870793e-05,0.00012308359,7.3313713e-06,2.4080276e-05,0.00063344836
0.002616942,0.000990659,0.0014892817,0.00022485852,1.1146069e-05,0.9708766,0.028074354,5.364418e-05,0.00960952,0.00019660592
0.977527,8.940697e-08,2.1606684e-05,3.787875e-05,1.4901161e-07,0.00024241209,0.00024336576,0.0006864667,0.00052428246,0.0045796335
3.874302e-06,8.1151724e-05,0.0012154281,0.0001372695,2.938509e-05,0.98616475,0.011754304,0.0001527667,0.8030827,0.00032564998
7.870793e-05,9.23872e-07,7.897615e-06,0.99880075,5.3942204e-06,0.00020715594,0.0011140704,5.9604645e-08,0.0028485358,7.939339e-05
0.00019785762,0.93687236,0.039817363,0.97405005,0.001306802,0.0044121444,0.14810118,0.0,0.8633968,0.0011180341
7.6413155e-05,4.4882298e-05,0.00027936697,0.0009061694,0.00015810132,0.99459934,0.010339588,1.2993813e-05,0.0007882714,8.702278e-05
0.00697574,0.0,1.0639429e-05,9.0152025e-05,1.2814999e-06,1.7404556e-05,0.0006656945,7.495284e-05,0.97195566,0.0002233088
0.012387544,0.0,4.0233135e-06,1.2546778e-05,5.066395e-07,4.351139e-06,0.00030776858,9.843707e-05,0.96509224,0.00032553077
0.0034568012,0.0,0.0043385625,0.006985247,0.028058171,4.23491e-05,0.0058383644,0.019285291,0.9833863,1.6212463e-05
0.0014370978,0.0010641813,0.08363512,0.0035322309,0.0010242164,0.000120699406,0.0014138818,0.00032809377,0.9548499,0.0010961592
0.9214937,8.940697e-08,5.3197145e-05,7.5399876e-06,1.66893e-06,0.00049591064,0.0006982684,0.007684827,0.00027614832,0.0049552023
0.74651563,2.6524067e-06,0.00017052889,0.008215457,5.608797e-05,0.49620855,0.0018464625,0.00044429302,0.00011712313,0.0011277795
0.22250071,2.0861626e-07,0.00048679113,2.0861626e-05,5.3673983e-05,0.0006905496,0.0014780164,0.5451066,0.023859799,0.08646259
0.9926288,1.1920929e-07,1.937151e-06,3.0308962e-05,1.7881393e-07,0.00014153123,0.00022628903,1.4305115e-05,0.0001039505,0.0019364357
0.00011438131,0.00056147575,0.35810477,0.0034683943,0.00038209558,0.00061300397,0.0033783019,0.00051799417,0.98594064,0.00011661649
9.089708e-06,0.97050905,0.015221119,0.011121154,2.4676323e-05,0.0016836226,0.0062785745,2.3841858e-07,0.9106741,0.01728198
