0,1,2,3,4,5,6,7,8,9
0.98716235,1.1920929e-07,2.0861626e-06,1.12354755e-05,0.0,0.0019877553,0.00059080124,1.2516975e-06,0.0017789602,0.008973718
0.9194175,0.0,6.854534e-07,1.1473894e-05,0.0,0.00013059378,0.0002629757,0.007730782,2.2560358e-05,0.0025823116
3.0696392e-06,1.4305115e-06,0.0026764274,0.0016622543,0.96014416,0.9999882,0.0017463565,3.695488e-06,0.00086924434,3.695488e-06
0.0,1.6093254e-05,5.9604645e-08,0.9999546,1.7881393e-07,0.034337133,0.97230434,2.9802322e-08,4.9203634e-05,4.7683716e-07
0.0003312528,0.0,2.9802322e-08,0.99994147,0.0,0.0007380247,0.00057834387,0.0,0.00067961216,4.4703484e-07
0.9902876,0.0,1.1920929e-07,0.0,0.0,5.441904e-05,0.00018435717,0.00018915534,5.155802e-06,2.142787e-05
0.0014459193,0.0,1.2814999e-06,7.0929527e-06,8.940697e-08,0.00053563714,0.0042299926,1.4901161e-07,0.99262786,0.0011546016
3.5762787e-07,0.0,5.5760145e-05,0.9999987,0.9964626,0.0013235509,0.0011384189,8.940697e-08,0.00031882524,5.9604645e-08
9.536743e-07,1.1920929e-07,1.3113022e-06,0.8629838,1.3113022e-06,0.000121593475,0.0019803345,6.0796738e-06,0.9997066,1.66893e-06
8.106232e-06,5.453825e-06,1.9967556e-06,1.2516975e-06,1.2040138e-05,0.0015758872,0.9994358,3.5613775e-05,0.001517117,0.0005836785
0.00038325787,0.0,0.59768987,1.9073486e-05,1.719594e-05,0.00020217896,0.005675733,6.4969063e-06,0.99247617,4.401803e-05
0.0020703673,0.0,8.261204e-05,3.5762787e-07,5.841255e-06,1.9401312e-05,0.0006786585,2.6524067e-06,0.99861383,3.0398369e-06
5.9604645e-07,0.2875456,0.00020930171,0.9920731,2.592802e-06,0.0028597116,0.010795683,0.0,0.7832079,8.4728e-05
4.157424e-05,0.9873439,0.0011719763,0.0005247295,2.1547079e-05,0.0013896525,0.00020325184,3.6358833e-06,0.03213823,0.0012020469
0.124871016,0.0,1.4275312e-05,6.2584877e-07,0.0,0.00035738945,0.0011357367,0.0001334846,0.9503355,0.00012204051
0.0012981594,0.016602427,0.00042581558,9.2089176e-05,5.13494e-05,0.0015156567,0.2693006,2.5629997e-06,0.7646235,0.0025537312
1.7285347e-05,0.0,3.516674e-06,0.99998564,2.1398067e-05,0.0004259348,0.00225991,2.9802322e-08,0.11327055,1.6987324e-06
0.9919152,5.9604645e-08,4.61936e-06,2.592802e-06,8.940697e-08,0.0008957982,0.00017660856,1.937151e-06,0.00031623244,0.0065608323
1.4007092e-06,0.0016337931,0.24988982,3.0845404e-05,0.0011475384,0.016142845,0.8953823,0.0002259016,0.76685226,0.00032567978
1.2904406e-05,9.834766e-07,2.8312206e-06,0.00017818809,2.5093555e-05,0.0007929802,0.84138966,0.0002642274,0.9076189,0.00018435717
0.9954164,0.0,3.5762787e-07,0.0,0.0,0.00047543645,0.00019946694,6.0498714e-06,1.7791986e-05,0.00046351552
0.0390774,2.5629997e-06,0.7502421,0.0050334632,2.3841858e-07,0.0015091598,0.0008608401,7.6919794e-05,0.00019365549,0.00036162138
0.9967909,0.0,0.0,2.3841858e-07,0.0,0.0002581179,0.00022137165,5.9604645e-07,6.452203e-05,0.0004323423
0.0011220276,4.6372414e-05,0.0018631518,0.026323766,3.784895e-06,0.0013351738,0.0031220913,1.6510487e-05,0.99162275,0.0028095841
0.00042116642,0.0,3.1888485e-06,5.364418e-07,1.1920929e-07,6.276369e-05,0.0005185008,3.1888485e-06,0.9930875,0.001244992
2.115965e-06,0.00027668476,0.1508565,3.951788e-05,0.0014569163,0.89476836,0.026287585,0.0005440414,0.03854963,0.006880522
0.0030561984,0.004863769,0.00035244226,2.9802322e-07,6.2584877e-07,0.0014308989,0.28096926,0.00010237098,0.000112980604,0.02747479
0.9058995,0.0,2.4735928e-06,0.0,8.940697e-08,0.00014948845,0.0002603233,0.008576155,7.838011e-05,0.00068870187
0.017214239,0.0,3.2782555e-06,2.1547079e-05,8.940697e-08,8.821487e-06,0.00025749207,0.9892951,0.009325206,0.00025233626
2.6226044e-06,0.99488807,0.00016564131,0.33041334,2.682209e-06,0.0068235695,0.01052919,5.9604645e-08,0.99315906,7.343292e-05
3.9875507e-05,2.1755695e-05,1.4901161e-07,1.66893e-06,2.0861626e-07,0.0011006296,0.9942845,8.940697e-08,0.005636573,0.0051285625
1.013279e-05,5.185604e-06,3.5762787e-07,8.314848e-06,3.2782555e-07,0.0043614805,0.99844575,4.4703484e-07,0.056384772,5.8740377e-05
0.0027974248,2.8908253e-06,6.854534e-06,5.364418e-07,1.2516975e-06,0.0009484887,0.99364734,1.4901161e-07,5.2303076e-05,4.9442053e-05
7.599592e-06,0.0,3.9339066e-06,0.9999707,8.72314e-05,0.0005065799,0.0043085814,1.5199184e-06,0.00010716915,4.827976e-06
0.7320877,0.0,1.4901161e-06,8.6426735e-07,1.6093254e-06,0.00019153953,0.00029683113,4.2021275e-06,0.4437838,0.0004567206
0.99912834,0.0,1.7881393e-07,0.0,0.0,0.0006174743,0.00017338991,1.1920929e-07,2.4735928e-06,4.8816204e-05
0.9423115,2.9802322e-08,1.1026859e-06,7.748604e-07,0.0,0.0022315383,0.0024127364,5.364418e-07,0.040039986,0.006787628
0.9988811,0.0,2.9802322e-08,1.7881393e-07,0.0,0.0002347827,0.0001155138,2.9802322e-08,1.3619661e-05,7.727742e-05
0.9758913,0.0,3.1292439e-06,1.1920929e-07,2.9802322e-08,0.0014217794,0.00088843703,9.536743e-07,3.2901764e-05,0.01888001
6.8962574e-05,0.0,5.9604645e-07,1.9669533e-06,0.0,8.7708235e-05,0.0014111698,5.155802e-06,0.9999286,5.7816505e-06
9.23872e-07,1.1622906e-06,0.9609544,0.002375871,0.0002695322,9.778142e-05,0.00094407797,0.00025853515,0.99519074,5.608797e-05
0.63479424,5.9604645e-08,1.3411045e-06,3.7819147e-05,2.1487474e-05,0.000887841,0.0012374818,0.0,0.27040184,0.0012694895
6.556511e-07,1.0728836e-06,0.008461505,0.00014609098,6.1154366e-05,0.9999996,0.00405401,0.000111073256,0.11070776,3.9041042e-06
4.172325e-07,0.9994762,9.953976e-06,0.0015998185,4.6789646e-06,0.00065883994,1.9907951e-05,2.0861626e-07,0.99298596,7.8082085e-06
0.00029993057,0.0,5.096197e-06,1.975894e-05,0.0,0.0003386438,0.01374957,8.225441e-06,0.9996518,9.62615e-05
0.0015558004,0.0,1.7881393e-07,1.7285347e-06,1.1920929e-07,1.1503696e-05,3.287196e-05,0.99774945,0.00564155,0.0001398027
0.14519972,0.0,7.966161e-05,6.854534e-07,2.3841858e-06,0.00022757053,0.000957489,1.8775463e-06,0.9538303,0.00022166967
0.0080011785,1.5199184e-06,0.00015607476,0.0010553598,6.5863132e-06,0.0011367202,0.0041912496,0.00022307038,0.9620401,0.0031666458
9.894371e-06,0.9976646,0.00028130412,0.0011838377,2.0772219e-05,0.007582456,0.000110030174,1.4901161e-07,0.5526174,0.00014859438
0.9971195,0.0,2.9802322e-08,2.682209e-07,0.0,0.0011822581,0.00028455257,2.3841858e-07,0.0003452003,3.758073e-05
0.000120192766,9.834766e-07,0.008384645,1.4126301e-05,3.427267e-06,0.8451309,0.012997806,0.0002501309,0.0022449493,0.0012612343
3.9041042e-06,0.9991529,6.6012144e-05,0.000106066465,3.4421682e-05,0.004790157,0.00010228157,9.536743e-07,0.010233134,0.0003579259
1.1920929e-07,5.00679e-06,0.000305444,1.8775463e-05,1.4513731e-05,1.0,0.0036164522,2.3245811e-06,0.57670647,2.297759e-05
0.21644825,0.0,9.23872e-07,8.484721e-05,0.0,0.0012315512,0.00059455633,0.0014120936,0.62416893,0.0040577054
0.9613773,6.556511e-07,4.863739e-05,1.7285347e-06,1.9311905e-05,0.0008738339,0.0007275641,1.7285347e-06,0.0012128949,0.027331412
1.6093254e-06,0.999895,3.4570694e-06,0.00025093555,0.00012129545,0.009823829,0.00011187792,2.9802322e-08,0.11360437,4.9173832e-05
0.5567663,7.1525574e-07,5.00679e-06,1.1026859e-06,0.0,0.00088876486,0.0019596815,4.4107437e-06,0.16781339,0.09761664
1.4662743e-05,0.999372,0.00065773726,0.00055101514,5.662441e-07,0.012333125,0.0005247891,7.1525574e-06,0.0034640431,0.00041034818
0.9692184,0.0,5.453825e-06,0.0,0.0,0.00042364,0.00034624338,0.0013688207,0.0037389696,0.0013693571
7.95722e-06,0.99867666,8.583069e-06,0.0004594326,2.8282404e-05,0.004594654,0.00024089217,0.0,0.07926327,0.0023898184
0.9979731,0.0,9.23872e-07,0.0,0.0,0.0007150471,0.00025054812,1.0311604e-05,0.00010180473,5.608797e-05
0.017379254,1.937151e-06,1.475215e-05,2.9802322e-06,4.4703484e-07,0.95435596,0.014300168,1.3709068e-06,0.31848282,0.00080138445
9.983778e-06,5.00679e-06,0.001532197,0.0019963384,0.9388476,0.9999216,0.0033622384,6.464124e-05,0.0027508438,9.536743e-05
2.220273e-05,2.3841858e-06,0.0,2.9802322e-08,0.0,2.5331974e-06,0.00018951297,0.0,0.04203081,0.9865088
0.0034732223,1.4662743e-05,0.0006969273,1.14142895e-05,4.7385693e-06,0.0008921325,0.023842752,1.8775463e-06,0.5676528,0.26995084
0.9966986,0.0,1.6987324e-06,8.940697e-08,0.0,0.00029706955,0.00016725063,3.9488077e-05,6.651878e-05,0.00012210011
0.99207616,0.0,5.9604645e-08,0.0,0.0,0.00039052963,7.072091e-05,0.0017485023,3.33488e-05,7.7575445e-05
1.2814999e-06,0.0,2.3692846e-05,6.854534e-07,0.00022515655,1.0788441e-05,0.0015154779,5.662441e-07,0.99982035,0.0002899766
0.0011296868,7.748604e-07,0.00061291456,0.00014105439,7.897615e-06,0.00039935112,0.0013438165,0.4800172,0.6554735,0.008107156
0.013225555,0.0,5.9604645e-08,2.3841858e-07,0.0,1.3113022e-06,8.627772e-05,0.99066114,2.2500753e-05,1.0311604e-05
0.18790394,2.9802322e-08,2.0861626e-06,1.0430813e-05,0.0,0.0003167987,0.00017881393,1.4901161e-07,0.9383322,0.0006713569
0.9924421,0.0,8.940697e-08,8.940697e-08,8.940697e-08,0.00018587708,0.00020635128,1.4275312e-05,0.00033929944,0.00022131205
1.8298626e-05,2.682209e-07,1.0311604e-05,0.9999796,6.8843365e-06,0.001496911,0.0025042892,2.0861626e-07,0.0011140704,3.7550926e-06
0.00034487247,5.9604645e-08,1.1920929e-07,0.9999274,0.0,0.00038415194,0.0014766455,2.0861626e-07,0.00034072995,2.0861626e-06
0.00028839707,0.0,3.4868717e-06,0.9999708,2.3841858e-07,0.00072193146,0.0006555021,0.0,0.00030365586,1.4007092e-06
0.0007882118,0.0,1.5199184e-06,4.1007996e-05,6.2584877e-07,0.0008188188,0.0077477098,3.6656857e-06,0.9984885,0.00017982721
0.346146,0.0,1.0371208e-05,4.082918e-06,5.662441e-07,0.00015223026,0.00040131807,0.83491826,0.0003771484,0.0073264837
0.9805378,0.0,1.4334917e-05,5.9604645e-08,2.9802322e-08,0.00061425567,0.0016216934,0.0007714927,0.0005134642,0.0012100041
0.74922454,0.0,1.1026859e-06,1.3411045e-06,5.9604645e-08,0.00021463633,0.00016358495,0.0057718456,0.06222552,0.00011152029
0.805007,8.940697e-08,6.854534e-07,0.036964297,2.3841858e-07,0.0013987422,0.00045630336,3.090501e-05,0.003427744,0.0009415448
0.9889322,0.0,3.784895e-06,5.9604645e-08,0.0,0.0028734505,0.00070914626,0.00020298362,0.00034579635,0.002245605
0.20868859,0.0,2.5629997e-06,7.390976e-06,0.9051372,0.0002104938,0.0005591512,1.7881393e-07,0.00010433793,0.00019648671
0.9912605,0.0,7.471442e-05,1.1920929e-07,0.0,0.00048664212,0.00047263503,1.0758638e-05,0.00066816807,3.3825636e-05
0.99415755,0.0,2.3841858e-07,5.9604645e-08,8.940697e-08,0.00183177,0.00037932396,5.4836273e-06,0.00010609627,0.0010077059
0.00036022067,0.0,8.240342e-05,0.00035190582,0.0017448962,0.00011005998,0.0011320412,0.0008777678,0.9986954,1.8119812e-05
0.99097383,0.0,1.1116266e-05,0.0,1.1920929e-07,0.00060635805,0.0007503629,0.00023365021,7.31349e-05,0.00047510862
1.5795231e-06,5.9604645e-08,0.00026914477,4.5508146e-05,2.115965e-06,0.9695872,0.026376396,3.886223e-05,0.9817222,8.314848e-06
6.2584877e-07,8.508563e-05,0.00018069148,0.00010877848,0.0050394833,0.0021361709,0.01687029,6.7949295e-06,0.004255891,0.9754672
2.861023e-06,2.9802322e-07,4.172325e-07,0.99999857,3.5762787e-07,0.0007985532,0.006226599,0.0,0.003178507,1.7881393e-07
3.1292439e-06,0.99958897,5.298853e-05,0.0074918866,0.0922631,0.007521838,3.6597252e-05,8.940697e-08,0.41782993,3.7640333e-05
0.026662052,0.0,3.2633543e-05,4.9471855e-06,7.766485e-05,0.00032928586,0.0031619966,0.00017175078,0.95083785,0.00096711516
0.9186092,0.0,5.364418e-07,1.3113022e-06,0.0,0.0009434521,0.00063824654,3.516674e-06,0.25135943,0.00094011426
1.013279e-06,0.0,0.0,7.4505806e-07,0.0,2.9802322e-08,4.261732e-05,0.0,5.662441e-07,0.9999913
0.074239105,0.0,1.4901161e-06,2.1457672e-06,0.0,4.6759844e-05,0.00012135506,0.93661714,0.0018554628,0.0012501478
0.0,0.00017467141,0.75091535,0.0035247803,0.0024911761,1.0,0.0019711554,0.00026592612,0.17543253,1.013279e-06
0.86693144,0.0,8.940697e-08,1.5795231e-06,5.9604645e-08,0.00017306209,0.00036856532,8.940697e-08,0.15911475,0.00015425682
1.707673e-05,2.6136637e-05,0.935711,7.8469515e-05,0.00059372187,0.0015390515,0.072983444,5.722046e-06,0.99009234,4.595518e-05
0.8809676,0.0,1.9967556e-06,6.714463e-05,5.9604645e-08,0.00052314997,0.0017204285,0.020336717,0.0006029308,0.003730774
1.7881393e-07,0.004733503,1.7881393e-07,0.9998992,1.9669533e-06,0.027905405,0.77655345,8.940697e-08,0.055099875,4.1127205e-06
7.83205e-05,2.9802322e-08,1.50203705e-05,1.1742115e-05,5.364418e-07,3.3169985e-05,0.00012978911,0.0023211837,0.0017412901,0.9561823
0.9831573,0.0,5.7160854e-05,7.748604e-07,1.4901161e-07,0.0006696582,0.00043073297,0.0003617704,0.0013667941,0.00065663457
0.96606314,0.0,1.04010105e-05,9.298325e-06,5.364418e-06,0.0008100569,0.0011324883,4.887581e-06,0.006764829,0.0018667877
5.671382e-05,0.0,3.1352043e-05,7.2687864e-05,0.0005825758,2.0205975e-05,0.0034190416,3.5762787e-06,0.99954706,9.223819e-05
0.02868545,0.0,1.0728836e-06,1.3887882e-05,3.3408403e-05,0.00023207068,0.0004593432,5.096197e-06,0.24942201,0.16903546
0.98147297,0.0,1.937151e-06,1.5258789e-05,2.9802322e-08,0.003401637,0.00085029006,3.0696392e-06,0.00014480948,0.0006625354
2.6404858e-05,0.44141024,0.00060778856,0.59222883,4.8577785e-06,0.017884523,0.03315854,8.6426735e-07,0.035833746,0.039798677
4.0084124e-05,1.013279e-06,3.156066e-05,6.7323446e-05,1.5795231e-06,0.9999757,0.0046946704,0.0029298663,0.0016525686,0.00012457371
2.1159649e-05,8.5532665e-06,0.042562872,0.9996139,0.0012135804,0.002063036,0.0019582808,2.4735928e-06,0.13045666,0.00058087707
0.84562606,0.0,4.529953e-06,1.6391277e-06,0.0,0.0011457205,0.0011725724,6.4343214e-05,0.023042083,0.031499714
3.260374e-05,0.0,8.6426735e-07,0.9999827,2.0861626e-07,0.0021731555,0.0012385249,0.0,0.0012228191,7.748604e-07
0.9964029,0.0,0.0,2.3841858e-07,0.0,0.00017535686,9.775162e-05,1.424551e-05,0.0003786981,4.5090914e-05
0.00012886524,5.9604645e-08,0.00219059,0.47201252,0.99736935,0.0006224215,0.0015298724,6.28829e-06,0.007588327,1.4871359e-05
2.9802322e-08,0.9980308,5.364418e-07,0.38439548,0.0,0.0004271567,0.0005199909,0.0,0.99863505,1.6391277e-06
0.99216706,0.0,4.7683716e-07,1.1920929e-06,8.940697e-08,0.0008762777,0.0014070868,0.0,0.00024977326,0.0007664561
8.940697e-07,0.00033956766,0.97804284,0.00030645728,0.000117868185,0.0008480847,0.0020796657,1.2546778e-05,0.98435533,0.000107854605
0.9118011,0.0,0.0010717213,2.3841858e-07,1.4901161e-06,0.002666533,0.0014760494,2.0325184e-05,0.004282564,0.016227037
1.9073486e-06,1.013279e-06,1.7613173e-05,4.7385693e-06,1.052022e-05,0.98202956,0.015071452,2.4437904e-06,0.93847626,6.508827e-05
4.7683716e-07,8.5413456e-05,0.03366652,0.0016910732,0.00021862984,1.0,0.004139036,2.8342009e-05,0.041668475,5.453825e-06
3.7938356e-05,6.854534e-07,7.379055e-05,0.99994874,1.8179417e-06,0.00147295,0.04188764,8.34465e-07,0.0014095902,2.0325184e-05
6.9737434e-06,0.0,2.7418137e-06,1.013279e-06,1.1920929e-07,8.6426735e-06,3.734231e-05,0.99954003,0.0006699562,0.00029718876
0.99003315,0.0,5.9604645e-08,8.940697e-08,2.0861626e-07,0.00021719933,0.00031372905,2.0861626e-07,0.0006800294,0.0007607639
0.9909203,0.0,2.0861626e-07,5.364418e-07,8.940697e-08,0.0006480515,0.00031095743,2.5957823e-05,0.00031289458,0.0005135834
0.99856055,0.0,5.364418e-07,2.9802322e-08,0.0,0.00046744943,0.00044760108,1.1026859e-06,3.4809113e-05,0.00016969442
0.43360022,2.9802322e-08,5.364418e-07,1.8417835e-05,0.0,0.004101455,0.00041729212,2.5182962e-05,0.8062357,0.0017729998
0.39187622,5.221367e-05,1.3113022e-05,0.000161618,1.5199184e-05,0.0006233454,0.0013988316,1.1622906e-06,0.29053634,0.021090418
5.9604645e-08,0.0,0.0,0.0,0.0,0.0,5.9604645e-07,0.0,0.00016057491,0.9999534
0.00037160516,5.3346157e-06,0.00071668625,9.149313e-06,2.9802322e-08,6.848574e-05,0.0033234358,3.5762787e-07,0.16734448,0.8745223
2.8401613e-05,0.8974325,0.0062841475,0.0012310445,0.0002964735,0.00094500184,0.00037017465,0.0017108023,0.0036718845,0.42062622
0.008790493,0.0,2.4437904e-06,5.7816505e-06,8.583069e-06,0.0005378425,0.004190922,2.1755695e-06,0.981322,0.003522396
0.9443311,0.0,4.6372414e-05,1.8775463e-06,3.6358833e-06,0.002226919,0.0006418824,5.683303e-05,0.02048698,0.0092460215
3.4570694e-06,0.99886554,0.00015926361,0.0001284182,0.00017386675,0.02165997,0.0005297959,1.7881393e-07,0.089683145,5.26309e-05
0.0020396113,2.9802322e-08,0.00013765693,4.7683716e-07,8.940697e-08,0.00015693903,0.0013055503,2.413988e-06,0.9937203,0.00073748827
0.0002733171,9.298325e-06,2.5629997e-06,2.7120113e-06,5.8084726e-05,0.005258411,0.9706445,1.0251999e-05,0.0017666519,0.022731096
0.96905726,2.9802322e-08,1.7881393e-07,1.4901161e-07,0.0,0.00051900744,0.0002322793,8.940697e-08,0.026709586,0.0012270808
5.9604645e-07,0.99949634,6.6548586e-05,0.73012936,0.00024455786,0.008809358,0.00023308396,8.940697e-08,0.047489792,9.301305e-05
1.2218952e-06,3.2782555e-07,0.00029343367,0.9996346,0.0048464537,0.00023320317,0.003632784,3.0696392e-06,0.0007362366,0.0007098317
0.7817131,2.9802322e-08,6.3180923e-06,0.020922393,3.2186508e-05,0.0023905039,0.0011757016,2.0563602e-06,0.0029230714,0.0043203533
0.1483683,3.0398369e-06,1.4990568e-05,1.1920929e-06,2.3841858e-07,0.00053587556,0.0015002489,8.046627e-07,0.8592,0.011112601
0.20407599,2.9802322e-08,0.0010460019,7.301569e-06,4.3809414e-06,0.00041347742,0.0019478202,9.23872e-07,0.8550033,9.0032816e-05
2.6643276e-05,0.0,1.0728836e-06,1.3023615e-05,6.020069e-06,5.042553e-05,0.00084605813,1.1920929e-06,0.9994839,2.7060509e-05
0.2496137,2.9802322e-08,2.0563602e-06,9.804964e-06,2.9802322e-07,0.00079491735,0.0007996261,9.655952e-06,0.7777313,0.0024688542
0.6971332,0.0,1.5497208e-06,4.798174e-06,7.748604e-07,0.00059455633,0.0007676184,0.0016598701,0.06883693,8.749962e-05
0.947122,5.9604645e-08,6.0766935e-05,8.910894e-06,1.7881393e-07,0.008881688,0.0016605556,2.3543835e-06,0.006059587,0.015022397
0.99846476,0.0,1.7881393e-07,8.940697e-08,0.0,0.0007927418,0.0003617108,2.8908253e-06,3.9935112e-05,0.00021731853
6.4373016e-06,2.9802322e-07,1.4901161e-07,0.999995,5.9604645e-08,0.007274002,0.029957443,1.4901161e-07,0.0004210174,2.0861626e-07
0.11407605,4.172325e-07,3.33786e-06,2.3454428e-05,0.0,0.006956637,0.0018667877,2.115965e-06,0.92831266,0.000931412
0.92728543,0.0,6.2584877e-07,2.682209e-07,2.9802322e-08,0.00012385845,0.00021415949,0.0044592917,0.006194383,0.00049972534
0.99719083,0.0,6.2584877e-07,2.9802322e-07,0.0,0.001182735,0.0019400418,1.1622906e-06,1.9550323e-05,0.00024455786
0.0073354244,2.3841858e-07,0.00016963482,3.1590462e-06,3.874302e-07,0.0012684464,0.008515239,3.4570694e-06,0.9661025,0.005743861
0.97693145,0.0,3.325939e-05,3.1888485e-06,8.940697e-08,0.018408507,0.00062030554,2.7894974e-05,0.0071107447,0.0007182956
0.35209268,0.0,5.3346157e-05,1.0430813e-06,1.3411045e-06,0.0010915399,0.00077441335,7.1823597e-06,0.28280523,0.007988304
0.00039830804,0.96259725,0.0010664761,0.00048807263,6.1273575e-05,0.007941514,0.000911206,1.3023615e-05,0.004488528,0.0067506433
6.642938e-05,2.861023e-06,1.4901161e-07,0.0006505847,0.0,0.0014093518,0.9966106,8.657575e-05,4.4465065e-05,0.00020748377
0.00043720007,2.1755695e-05,0.00010377169,4.2945147e-05,5.185604e-06,0.8590309,0.08925709,0.0004104972,0.2866456,0.015737593
0.0003450215,1.1920929e-07,2.5212765e-05,0.00047838688,1.4305115e-06,0.0007942915,0.00466159,5.9604645e-08,0.99769723,0.0003566444
0.20208484,1.4901161e-07,8.046627e-06,4.7683716e-07,0.0,0.00013998151,0.00017699599,3.3676624e-06,4.1007996e-05,0.8731162
8.672476e-06,0.0,2.1189451e-05,7.9482794e-05,0.0049833357,1.4781952e-05,0.0008778274,0.9322525,0.38841426,0.0011256039
1.4901161e-05,0.9684457,0.00031721592,0.009410292,7.6025724e-05,0.0053001344,0.012687981,1.1920929e-07,0.029075712,0.0029363632
0.00012242794,1.1920929e-07,3.9458275e-05,0.99994355,1.6957521e-05,0.0015394688,0.0016027093,0.0,0.005481869,2.759695e-05
0.99853987,0.0,1.7881393e-07,5.9604645e-08,0.0,0.00038665533,0.00021508336,4.23193e-06,4.5895576e-06,2.3245811e-05
0.00789997,1.1920929e-07,0.00017896295,2.6226044e-06,3.2782555e-06,0.00030329823,0.00022682548,0.97142166,7.593632e-05,0.0018964112
0.0042109787,4.172325e-07,7.4207783e-06,3.4570694e-05,1.4901161e-07,0.9990645,0.0005316436,8.940697e-08,0.021138728,1.5556812e-05
1.5199184e-06,0.0,1.4901161e-07,0.0,0.0,3.5762787e-07,2.6673079e-05,8.940697e-08,7.748604e-07,0.99999475
2.9802322e-07,0.9885793,0.0001667738,0.002128005,1.7881393e-07,0.0012407303,0.0007863045,0.0,0.9994919,1.3113022e-06
0.0,0.000112086535,0.00022342801,0.999992,0.0005235374,0.00072336197,0.11124802,1.4901161e-06,0.0128417015,4.1127205e-06
0.0028732717,0.0,1.9013882e-05,1.2904406e-05,3.2782555e-07,0.00039368868,0.0047588646,3.156066e-05,0.9963617,0.00034841895
8.940697e-07,7.5399876e-06,1.7881393e-07,7.301569e-06,2.9802322e-08,3.4213066e-05,0.85653174,3.4868717e-06,0.9959593,0.0011730194
0.9654088,2.9802322e-08,5.698204e-05,1.2218952e-06,1.7285347e-06,0.0012759268,0.0006881654,5.2452087e-06,0.0009893477,0.0251804
0.22138438,0.0,6.4969063e-06,6.3478947e-06,1.1920929e-06,0.00058087707,0.0011217594,3.4421682e-05,0.88488364,0.003068626
9.635091e-05,0.0,1.5497208e-06,4.7683716e-05,1.5854836e-05,0.0005915761,0.013151318,1.13248825e-05,0.99865603,0.00014454126
0.00022801757,0.0021565855,8.7469816e-05,0.0059140325,0.00015574694,0.027235955,0.90092164,2.9027462e-05,0.012286276,0.04034981
0.9944068,0.0,1.013279e-06,1.1026859e-06,2.9802322e-08,0.0017443299,0.0005707741,2.9802322e-07,0.00020503998,0.0019473732
0.99620736,0.0,8.940697e-08,2.9802322e-08,7.4505806e-07,0.0005054474,0.001182884,1.4066696e-05,0.00013363361,0.00047451258
6.0796738e-06,0.0,8.481741e-05,9.834766e-06,1.0728836e-06,2.1100044e-05,0.00041517615,2.2023916e-05,0.018882662,0.9994105
0.98762083,3.5762787e-07,2.6732683e-05,1.9967556e-06,8.940697e-08,0.023578703,0.028101891,3.695488e-05,0.00011506677,0.0026744306
3.0040741e-05,0.99556017,0.011604995,0.00025212765,4.8428774e-05,0.0065670907,0.0030343235,1.090765e-05,0.015210509,0.0016056299
5.9604645e-08,1.7881393e-07,1.5497208e-06,0.999995,0.99415636,0.00069636106,0.00084093213,5.9604645e-08,0.00086802244,5.9604645e-08
6.467104e-06,1.4901161e-07,2.9802322e-08,6.1690807e-06,2.0861626e-07,0.0019478202,0.99985385,0.0,1.6480684e-05,4.61936e-06
0.975556,0.0,1.1920929e-07,0.0,0.0,2.5719404e-05,0.00014570355,0.00093171,0.00010347366,0.0001257062
2.3841858e-07,2.9802322e-08,0.99861133,2.6673079e-05,1.7881393e-05,0.0001360476,0.0033646226,2.2619963e-05,0.9918635,2.115965e-06
0.0,0.00024408102,5.8710575e-05,0.00053817034,2.321601e-05,1.0,0.0024483502,1.4007092e-06,0.0071258843,3.7759542e-05
0.983193,0.0,1.0728836e-06,5.662441e-07,1.1920929e-06,0.00024735928,0.0004466176,1.013279e-06,0.004083127,0.0012930036
2.8014183e-05,0.000114649534,0.011167765,0.00010615587,6.276369e-05,0.999982,0.021749258,0.001390487,0.00399822,0.0004181862
0.00018519163,0.0,2.682209e-06,6.908178e-05,2.9802322e-08,0.0001783669,0.001208663,0.0005123913,0.9996908,1.7881393e-05
0.0,0.00016888976,0.00094792247,0.01853031,1.9848347e-05,0.890264,0.8249434,1.1622906e-06,0.35604072,0.0004554093
1.1652708e-05,0.9945761,0.00021103024,0.78966963,4.6283007e-05,0.010580689,0.0021772385,2.0861626e-07,0.4718795,0.0003491044
5.066395e-07,1.0251999e-05,0.00015306473,7.3194504e-05,9.715557e-06,1.0,0.0016460419,2.592802e-06,0.064759314,1.2814999e-06
0.03257963,0.00020170212,6.431341e-05,0.0027480125,6.2584877e-07,0.00047400594,0.00053048134,9.536743e-07,0.0016696155,0.8921478
0.41959485,1.7881393e-07,1.4901161e-07,3.2484531e-06,2.682209e-07,0.00041499734,0.0007288754,0.0,0.6657913,0.001369834
0.64423627,1.7881393e-07,5.364418e-07,6.1392784e-06,1.1920929e-07,0.00015228987,0.0003799498,0.00017434359,0.62246525,0.00014859438
2.682209e-07,0.00021898746,0.0015755892,0.0075644553,0.00017371774,0.99994576,0.016915888,2.169609e-05,0.034914523,0.0003477037
1.9967556e-06,3.2931566e-05,0.7603674,3.0368567e-05,2.9802322e-08,4.592538e-05,0.00050866604,3.5762787e-06,0.99865377,1.8775463e-06
0.0032652318,1.6450882e-05,0.003138274,8.133054e-05,0.002721399,0.0005645454,0.00047323108,1.7881393e-06,0.22845542,0.115701705
7.1525574e-06,1.0818243e-05,0.0003798902,0.00020250678,5.364418e-06,0.9917954,0.016764432,7.122755e-06,0.9851659,0.00027170777
0.9115652,0.0,1.1384487e-05,1.3709068e-06,8.34465e-07,0.0014938116,0.00074005127,0.0020981133,0.013310343,0.0028982759
0.86157733,0.0,0.00013768673,2.682209e-07,9.23872e-07,0.0006006658,0.0011086762,3.3080578e-06,0.02811718,0.011576563
0.00017267466,5.543232e-06,0.00024595857,0.000117361546,5.015731e-05,0.998338,0.013175696,0.0041225255,0.022661805,0.005671382
4.2766333e-05,2.3841858e-07,0.99264467,0.0001001358,6.082654e-05,0.00022605062,0.012798488,2.0384789e-05,0.98360133,3.0487776e-05
3.5762787e-07,0.003431648,0.81330305,7.3224306e-05,0.00012600422,0.042725027,0.17024443,4.1544437e-05,0.96462524,0.00015172362
3.5762787e-06,0.0011511743,0.00034451485,0.9416913,0.0038971603,0.0020304918,0.96131647,5.9604645e-07,0.3787517,0.0006593466
0.011410981,2.3663044e-05,0.00028389692,0.9031314,0.9709876,0.018677026,0.011370897,1.886487e-05,0.0016609132,0.00018629432
0.00301224,0.0,0.9978623,4.222989e-05,5.7816505e-06,0.000426203,0.0013147593,0.00012412667,0.00014215708,0.00010749698
0.054217458,0.0,1.66893e-06,1.2218952e-05,1.5795231e-06,0.00032141805,0.00083214045,1.0728836e-06,0.97815907,0.00011602044
3.0696392e-06,0.13781679,0.00083631277,0.9997759,0.05297172,0.0010788143,9.995699e-05,1.1920929e-07,0.0057174265,4.5895576e-06
0.9951298,0.0,2.3245811e-06,1.1920929e-07,0.0,0.0011395812,0.00056681037,7.4505806e-07,0.00031736493,0.00021499395
0.0047804415,5.9604645e-08,8.34465e-07,6.556511e-07,9.23872e-07,0.0033319294,0.93754846,4.5895576e-06,0.004735917,0.00022700429
0.00010693073,0.0,4.172325e-07,4.9442053e-05,0.0027664006,1.218915e-05,0.0010259748,4.7683716e-07,0.9991666,4.1007996e-05
6.7055225e-06,0.0,1.1920929e-07,0.99999404,0.0,0.00051540136,0.0003976822,0.0,2.6792288e-05,0.0
0.99419343,0.0,2.9802322e-07,2.3841858e-07,3.2782555e-07,0.0002489686,0.00037240982,2.0563602e-06,8.559227e-05,5.632639e-05
0.10457969,3.5762787e-06,3.4093857e-05,0.91289043,2.503395e-06,0.010434449,0.0018077493,1.41859055e-05,0.0021852255,0.000113368034
0.0068256855,0.0,1.4305115e-06,2.2053719e-06,0.042990208,2.7477741e-05,0.00068345666,1.3709068e-06,0.98307776,1.1622906e-05
5.9068203e-05,2.3841858e-07,4.3988228e-05,1.4603138e-06,1.463294e-05,0.99999666,0.00080540776,1.847744e-06,0.05716902,0.00015333295
0.99744636,0.0,3.874302e-07,1.21593475e-05,1.1920929e-07,0.0005143881,0.0004967749,5.9604645e-07,4.979968e-05,0.00018692017
7.3194504e-05,0.0,0.0015197694,0.99976313,6.4969063e-06,0.00025388598,0.0007545352,5.9604645e-08,0.0001103282,4.172325e-07
0.6759792,2.682209e-06,3.5315752e-05,2.9802322e-07,2.9802322e-08,0.00025632977,0.00034567714,4.014373e-05,0.002622515,0.049419522
8.314848e-06,0.0,5.9604645e-08,3.784895e-06,0.0,4.5359135e-05,0.00027528405,0.99997616,0.00024831295,4.1782856e-05
0.000523597,5.2452087e-06,5.7071447e-05,3.066659e-05,1.2278557e-05,0.020680904,0.6204653,2.2619963e-05,0.17272928,0.0069749057
0.00018781424,0.0,1.0728836e-06,3.4868717e-06,4.053116e-06,3.761053e-05,0.00041893125,1.1920929e-07,0.9998069,2.3126602e-05
0.998209,0.0,5.9604645e-08,8.940697e-08,0.0,0.000377208,0.0002747476,3.5762787e-07,1.3440847e-05,2.604723e-05
0.05168608,5.9604645e-08,0.0021588504,1.6778708e-05,9.894371e-06,0.002414018,0.0016321242,1.8954277e-05,0.7851177,0.0959627
0.7554493,0.0,3.2782555e-07,0.0,0.0,0.56481004,0.0006136596,2.3841858e-07,3.287196e-05,7.236004e-05
0.0003183484,0.0,2.3841858e-07,0.99994683,7.4505806e-07,0.00040960312,0.0007839799,0.0,0.00035828352,2.6226044e-06
0.6304007,0.0,8.070469e-05,7.6293945e-06,8.85129e-06,0.0003119111,0.00069749355,5.364418e-06,0.1115838,0.061160386
3.5136938e-05,0.72677577,0.06890637,0.0005033314,9.924173e-06,0.013033509,0.109375,0.00018981099,0.25748074,0.025487572
0.99490607,0.0,1.4603138e-06,9.23872e-07,2.9802322e-08,0.00081822276,0.00056123734,1.3679266e-05,0.0006787777,0.0006739795
0.9788511,0.0,1.3321638e-05,3.4868717e-06,1.7225742e-05,0.0016141832,0.0059649646,0.000106185675,0.0006914437,0.00069105625
8.150935e-05,2.5182962e-05,0.00020888448,0.9997796,6.943941e-06,0.6416954,0.008943707,1.7881393e-07,0.0062961876,1.3947487e-05
0.9983909,0.0,0.0,5.9604645e-08,0.0,0.00029340386,9.089708e-05,1.1920929e-07,0.0004400909,4.056096e-05
5.662441e-07,0.00016912818,0.0010557175,0.0002747476,3.257394e-05,0.9986547,0.043296397,0.0003361106,0.020766795,0.008468002
3.874302e-07,0.99940485,8.21054e-05,0.0003682673,7.033348e-06,0.00069767237,2.2798777e-05,5.9604645e-08,0.9918533,2.5331974e-06
0.9938513,0.0,2.9802322e-07,4.172325e-07,0.0,0.0008342266,0.0005213022,3.874302e-07,0.0009847283,0.00039878488
0.9962064,0.0,7.748604e-07,7.4505806e-07,0.0,0.0005687773,0.00023883581,1.9162893e-05,0.00013962388,8.85427e-05
0.039390266,6.556511e-07,7.033348e-06,1.3113022e-06,1.1920929e-07,0.0070518255,0.59000355,2.0861626e-07,1.9222498e-05,0.0013893545
0.005095154,0.0,1.3411045e-06,1.0430813e-05,2.9802322e-08,5.0246716e-05,0.00026747584,0.9962288,0.00040617585,0.0001474917
5.453825e-06,1.5377998e-05,1.7672777e-05,5.4061413e-05,1.7285347e-06,0.9999677,0.027285665,1.937151e-05,0.030576825,0.0003747046
2.026558e-06,0.989851,0.00042057037,0.0006286502,7.4505806e-07,0.8828316,0.0016539991,2.9802322e-08,0.65495425,1.9699335e-05
0.9965383,0.0,7.1525574e-07,0.0,0.0,0.0012224615,0.00048941374,2.7418137e-06,8.016825e-05,0.0016250014
1.4781952e-05,0.0,2.026558e-06,0.38995954,1.937151e-06,0.00018709898,0.0011942387,2.682209e-07,0.99975246,1.7881393e-07
0.9885911,0.0,2.3841858e-07,1.7881393e-07,1.1920929e-07,0.000539273,0.0003656149,3.322959e-05,0.0008069873,0.0007608235
7.5399876e-06,2.9802322e-08,1.7851591e-05,0.99999726,0.0007558763,0.0009470284,0.00094401836,8.940697e-08,0.0007646382,3.5762787e-07
0.0017774701,1.7821789e-05,3.8146973e-06,0.00010982156,0.0,0.9991218,0.077225626,6.2584877e-07,0.0014795363,0.00031653047
0.96725285,0.0,4.4703484e-07,1.4901161e-07,0.0,0.00013405085,0.00016865134,0.0018209815,4.0620565e-05,0.00046512485
2.2649765e-06,1.335144e-05,5.990267e-06,3.1590462e-06,3.749132e-05,0.0009444058,0.95131683,1.3113022e-06,0.9628049,0.0014218688
0.925907,0.0,1.5079975e-05,9.208918e-06,1.9878149e-05,0.0024468899,0.0018901825,6.9499016e-05,0.0027831495,0.058507323
0.45570606,0.0,2.95043e-06,5.662441e-07,5.364418e-07,1.6868114e-05,7.3730946e-05,2.9206276e-06,0.00034958124,0.10001621
0.9809917,0.0,0.0,0.0,0.0,5.352497e-05,9.6827745e-05,5.1259995e-05,0.00018835068,1.6450882e-05
0.037611723,0.0,4.4703484e-07,9.804964e-06,1.4901161e-07,0.00025230646,0.00029194355,6.854534e-07,0.98362327,0.0005597174
0.023076057,0.0,8.46982e-05,2.0563602e-06,4.3213367e-06,0.0003619492,0.0015010238,3.5464764e-06,0.97970825,0.00033414364
0.0040228665,3.2782555e-07,0.000120162964,6.431341e-05,4.1544437e-05,0.00010958314,0.002356708,3.361702e-05,0.3868044,0.7656953
0.07273781,0.0,5.155802e-06,1.2516975e-06,8.940697e-08,0.0014083982,0.0035048723,8.821487e-06,0.85313046,0.0016770065
1.1026859e-06,0.0,3.427267e-06,0.9999989,8.940697e-08,0.000297755,0.004141748,3.2782555e-07,0.0005505681,5.9604645e-08
2.69413e-05,1.5199184e-06,1.9133091e-05,1.8775463e-06,2.3841858e-07,0.00037670135,0.011628538,1.5616417e-05,0.9899672,0.0019060969
1.2636185e-05,1.5497208e-06,0.0004477501,0.9999874,2.7358532e-05,0.0013461113,0.008579284,0.0,0.17183599,1.4901161e-07
1.5705824e-05,0.0,5.066395e-07,0.99999905,1.1920929e-07,0.0004657507,0.0013253093,0.0,5.2571297e-05,5.9604645e-08
0.99162394,0.0,9.23872e-07,2.682209e-07,0.0,0.00049728155,0.0002809763,0.00024610758,0.00020900369,0.00019854307
0.01153931,0.0,3.2186508e-05,0.00013443828,0.011144251,0.00069257617,0.00065112114,0.00033131242,0.9451115,4.6998262e-05
8.940697e-08,5.543232e-05,4.0084124e-05,0.9462824,0.9984076,0.0015083253,0.9512733,4.7683716e-07,0.01202175,2.9802322e-06
0.99798757,0.0,3.5762787e-07,1.4901161e-07,0.0,0.0021555424,0.0004490018,1.9073486e-06,1.2278557e-05,4.0888786e-05
3.0368567e-05,8.940697e-08,9.834766e-07,2.3156404e-05,1.013279e-06,0.00012716651,0.0012865067,4.172325e-07,0.9995898,0.00019901991
3.4362078e-05,0.0,3.0875206e-05,0.0008856356,3.7431717e-05,0.00014433265,0.0012062788,3.5762787e-07,0.99951094,1.4275312e-05
0.00011613965,0.0,8.136034e-06,7.677078e-05,3.1292439e-06,0.0007042587,0.0040112734,3.3527613e-05,0.9998185,4.7534704e-05
3.361702e-05,0.99892807,0.0003092289,0.00012624264,6.976724e-05,0.0021514297,0.00069978833,1.1920929e-07,0.6939796,0.00033068657
0.00014087558,2.0861626e-07,2.3961067e-05,0.99864924,0.0012812614,0.018714428,0.0012927055,1.847744e-06,0.0015615523,3.3974648e-05
3.874302e-07,3.4868717e-05,0.9938823,0.00024670362,4.6491623e-05,0.99996436,0.006120205,1.8835068e-05,0.009181768,6.2584877e-07
0.12215814,0.0,4.10676e-05,7.748604e-07,8.940697e-08,0.88259506,0.0008457303,0.00021931529,0.00022947788,0.0002270937
8.940697e-08,1.7881393e-05,0.012481421,4.0262938e-05,1.4543533e-05,0.9999999,0.00093975663,1.0728836e-06,0.0048619807,8.2701445e-05
0.96872175,0.0,9.992719e-05,1.013279e-06,9.834766e-07,0.001999408,0.00060385466,0.0009460151,0.00068202615,0.0034973323
5.5104494e-05,0.0,4.172325e-07,9.2595816e-05,0.0,0.0005339086,0.0016065538,3.6418438e-05,0.9999237,1.2904406e-05
0.0007902086,0.0,2.2858381e-05,8.940697e-08,0.0,0.00015446544,0.0010913312,2.3841858e-07,0.9989866,0.0003273189
0.0020358562,0.0,0.00011214614,2.2947788e-06,3.5762787e-07,0.00011113286,0.0036295652,0.00020197034,0.99199426,0.0007478297
0.5159446,8.940697e-08,7.4505806e-07,6.3180923e-06,0.0,0.00082305074,0.00085783005,1.1384487e-05,0.7558737,0.0007185936
0.00014048815,2.3841858e-07,1.0043383e-05,2.0593405e-05,8.940697e-08,0.00022545457,0.0023566484,3.5762787e-07,0.9997964,4.7028065e-05
8.4519386e-05,0.9868587,0.0039048493,0.001481235,0.00044351816,0.004417032,0.0065157413,5.2452087e-06,0.05502653,0.057471246
0.00016018748,1.4543533e-05,0.009892404,0.9979198,0.0057872236,0.0029081106,0.0024831295,1.1622906e-06,0.16419536,1.14142895e-05
0.99103856,0.0,1.66893e-06,1.1920929e-07,0.0,0.0004916191,0.00028422475,7.5101852e-06,0.009597212,8.895993e-05
0.0009381771,0.0,1.04010105e-05,1.1652708e-05,1.1920929e-07,0.00032538176,0.0005110502,1.591444e-05,0.99911165,5.8323145e-05
0.19263968,0.0,2.1606684e-05,7.2687864e-05,4.720688e-05,0.0009586513,0.00087988377,7.033348e-06,0.8388361,7.742643e-05
4.3809414e-06,0.0019309521,0.04113716,0.0013620555,1.04010105e-05,0.015959054,0.08621016,2.5451183e-05,0.99228406,0.000813961
0.10271397,0.00012865663,0.017262727,6.2286854e-06,2.0861626e-07,0.0023127794,0.6590145,0.00013911724,0.0019516647,0.03590846
0.18333894,2.9802322e-08,9.62615e-06,6.854534e-07,2.115965e-06,0.0012292266,0.0029703677,1.6391277e-06,0.003347993,0.9392916
0.991375,0.0,9.834766e-07,5.662441e-07,2.9802322e-07,0.0014692545,0.0003094375,1.8537045e-05,0.0003207922,0.0006890595
0.97833174,0.0,8.34465e-07,2.4437904e-06,8.940697e-08,0.0009326637,0.000798136,3.1352043e-05,0.0018534958,0.0024445653
0.89750546,0.0,7.1823597e-06,1.4901161e-07,2.3841858e-07,0.00026616454,0.0004028678,0.005004823,0.007067293,0.002100259
1.1861324e-05,0.14570147,0.817534,7.772446e-05,3.3140182e-05,0.014587104,0.05726713,6.6548586e-05,0.00539127,0.0008585453
0.008830577,8.940697e-08,0.19382042,2.142787e-05,5.3346157e-06,0.00038403273,0.0016554892,7.5131655e-05,0.9811629,0.00036221743
4.887581e-06,0.067598045,0.049240798,0.035139233,2.8461218e-05,0.018741459,0.010154694,4.544854e-05,0.22799551,0.31255758
0.9695531,0.0,5.364418e-07,9.23872e-07,1.847744e-06,0.00021255016,0.00041639805,1.4901161e-07,0.0042206645,7.870793e-05
0.8550671,0.0,1.4901161e-07,5.662441e-07,1.847744e-06,0.0004837513,0.0003694892,1.1920929e-07,0.0745841,0.026533633
0.0,0.00015383959,0.23394832,0.9999782,0.24739358,0.005557716,0.23911509,2.9802322e-08,0.017829359,8.940697e-08
6.914139e-06,0.99915063,0.0006995797,0.00054228306,3.5762787e-06,0.008209109,0.0007366538,1.1026859e-06,0.36413404,0.00016793609
8.249283e-05,0.0,2.1576881e-05,2.592802e-06,1.4901161e-07,4.0769577e-05,0.0008087754,1.4901161e-07,0.9993363,3.46601e-05
0.99233794,0.0,5.364418e-07,2.0861626e-07,0.0,0.0013049841,0.0039307177,7.748604e-07,0.00019225478,0.0005519092
4.5865774e-05,0.0,4.9471855e-06,0.0020418763,2.5331974e-06,0.00034311414,0.004027933,1.3023615e-05,0.9978007,0.00027307868
0.00027140975,0.0,1.66893e-05,5.7965517e-05,0.038903624,3.4570694e-05,0.0011768341,0.00012817979,0.998975,1.7285347e-06
0.989079,0.0,2.0861626e-07,2.9802322e-08,0.0,0.00013184547,0.00031608343,1.4394522e-05,0.0015999973,9.033084e-05
8.940697e-08,1.4603138e-05,0.0004503727,2.1576881e-05,0.00012272596,0.99996334,0.004190415,1.9669533e-06,0.82198,0.00050744414
8.940697e-08,0.847126,0.14208153,0.008429378,0.00047647953,0.99996257,0.001447469,6.0796738e-06,0.46738514,9.983778e-06
0.039905608,3.874302e-07,2.7269125e-05,0.8327384,1.937151e-06,0.002091229,0.0012687147,1.0699034e-05,0.0006786287,0.00037443638
0.9816698,0.0,1.7285347e-06,3.5762787e-07,0.0,0.00012654066,0.00032874942,0.0001296103,0.0023286343,6.109476e-05
0.161116,1.7881393e-07,0.00014024973,1.937151e-06,1.4901161e-07,1.6272068e-05,0.0014456213,0.48048592,0.0051670372,0.038834304
0.02047211,3.5077333e-05,0.754495,3.2424927e-05,6.0796738e-06,0.0007311106,0.0008122027,9.74834e-05,0.21427819,0.0003848672
0.7479899,0.0,2.0563602e-06,2.9802322e-07,1.3113022e-06,9.059906e-05,0.00012654066,0.22246987,0.00015434623,0.005439073
0.99786186,0.0,1.1920929e-07,5.9604645e-08,0.0,0.0003723204,0.00041657686,3.606081e-06,8.171797e-05,0.00013780594
1.4901161e-07,0.0016328692,0.00063848495,0.99929106,0.0007957518,0.007684499,0.40510613,3.874302e-07,0.79933435,3.7521124e-05
0.9909936,0.0,0.00019860268,5.364418e-07,3.874302e-07,0.00090035796,0.0002975464,8.404255e-06,5.5342913e-05,0.0003169775
0.015559107,0.0,0.00027406216,5.1259995e-06,3.6656857e-06,0.00077816844,0.0014496744,1.2665987e-05,0.9893405,0.0011143684
5.5015087e-05,1.7434359e-05,4.172325e-07,1.3411045e-06,1.2218952e-06,0.0022488236,0.92629945,1.0728836e-06,0.061440766,0.021442443
8.940697e-08,1.7881393e-07,3.772974e-05,0.9999956,1.347065e-05,0.0005168915,0.008186907,5.364418e-07,0.00049471855,6.020069e-06
0.99390906,0.0,4.7683716e-07,2.0861626e-07,1.4901161e-07,0.0007176399,0.00045463443,2.3841858e-07,0.00024718046,0.00025865436
0.99918646,0.0,0.0,0.0,0.0,0.00031217933,0.00039696693,1.1920929e-07,2.0980835e-05,2.0891428e-05
1.4305115e-06,2.399087e-05,0.00045901537,0.00024297833,0.00026088953,0.9999458,0.0069945455,1.22487545e-05,0.0037887692,0.00685215
1.0460615e-05,0.0,2.4616718e-05,5.811453e-06,2.9802322e-07,0.00018501282,0.0019612014,0.0010933578,0.99892545,0.0003117621
3.2782555e-07,2.0861626e-07,3.5762787e-07,1.770258e-05,0.0,8.2820654e-05,0.72419596,2.8312206e-06,0.99991,1.1026859e-05
0.00021001697,0.0,3.3974648e-06,5.096197e-06,5.364418e-07,0.00015419722,0.00094106793,1.3798475e-05,0.9996524,9.268522e-05
8.046627e-06,7.3611736e-06,0.9906438,0.00014179945,0.00018036366,0.0046984255,0.12993369,2.336502e-05,0.38882205,0.0009329319
0.99626744,0.0,2.9802322e-08,5.364418e-07,0.0,0.00055509806,0.00027921796,1.1622906e-06,0.0001847148,0.00059625506
5.9604645e-08,0.0,0.0,0.0,0.0,0.0,5.9604645e-07,0.0,0.00016057491,0.9999534
0.015902817,0.0,0.0021211803,4.082918e-06,0.99684006,0.0001078248,0.0006836355,2.6881695e-05,7.4476004e-05,0.00011318922
0.9655622,0.0,8.34465e-07,8.940697e-08,0.0,0.001762867,0.0007406175,4.4703484e-07,0.0013443828,0.008717209
0.34718168,3.5852194e-05,1.9043684e-05,0.00013306737,0.00016060472,0.006649852,0.0068724155,5.2928925e-05,0.0238339,0.084474415
0.99226356,0.0,1.1026859e-06,2.3841858e-06,0.0,0.0008471608,0.00039348006,9.23872e-07,0.002165407,0.00013807416
4.798174e-06,0.0,6.520748e-05,0.0,5.9604645e-08,3.9041042e-06,0.00028014183,8.940697e-08,2.9057264e-05,0.99997395
0.0020658076,0.0,1.9907951e-05,7.659197e-06,5.662441e-07,0.00036752224,0.0014687777,0.00225994,0.98508704,0.002140075
0.225694,0.0,2.2828579e-05,0.002018392,4.172325e-07,0.008090496,0.0012519956,2.425909e-05,0.6993359,0.034025997
0.99554384,0.0,4.4703484e-07,4.7683716e-07,0.0,0.0007967055,0.0007118881,0.0,8.684397e-05,0.00010180473
1.1861324e-05,6.2584877e-07,2.9802322e-07,1.7285347e-06,2.0861626e-07,0.0057931244,0.99948615,9.536743e-07,0.0008504987,0.0001565814
1.7881393e-07,2.8580427e-05,0.0005181134,0.0005173981,0.0002052486,0.9999998,0.0026834905,5.4836273e-06,0.109019876,2.4288893e-05
0.00035217404,8.940697e-08,1.1920929e-06,0.9998106,2.9802322e-08,0.0014394522,0.0033492744,1.7881393e-07,0.00023081899,3.8146973e-06
0.99506056,0.0,1.1622906e-06,2.9802322e-07,5.9604645e-07,0.0025603771,0.00037929416,1.4901161e-06,1.40964985e-05,0.0005489886
1.8268824e-05,5.9604645e-08,3.5762787e-07,0.99998987,2.0861626e-07,0.00016832352,0.0010062754,0.0,0.00082969666,2.0325184e-05
3.33786e-06,0.9944132,0.0002014339,0.9986204,0.0003693998,0.005846113,0.00029075146,1.1920929e-07,0.17986408,1.6629696e-05
0.978405,0.0,9.536743e-07,8.940697e-08,1.1920929e-07,0.0003747046,0.0006427765,0.00031527877,0.00012299418,0.0022918582
1.463294e-05,8.046627e-06,0.0015723109,0.014244944,0.2808386,0.99992234,0.009439439,0.00022220612,0.0037934482,0.0001706481
1.6093254e-05,0.0,1.013279e-06,0.99999785,0.0,0.0005109012,0.0019399226,8.940697e-08,2.4706125e-05,2.9802322e-08
0.00020891428,1.7881393e-07,7.480383e-06,1.1026859e-06,0.0,0.00011840463,0.001103431,4.2796135e-05,0.9994594,6.914139e-05
0.0028342009,2.0861626e-07,4.440546e-06,0.97663546,5.9604645e-08,0.00064077973,0.0012961924,9.119511e-06,0.08902103,0.00023192167
1.758337e-05,9.864569e-06,0.00029489398,0.00010931492,1.2516975e-06,9.268522e-06,0.00061658025,2.9802322e-08,0.0055499673,0.99053746
4.708767e-06,0.0,8.940697e-08,0.99999523,0.0,0.00020593405,0.0014052093,7.748604e-07,4.0858984e-05,1.7881393e-07
0.0003079474,2.4557114e-05,2.3841858e-07,8.225441e-06,4.7683716e-07,0.0040335655,0.8582773,1.257658e-05,0.8065228,0.00234586
0.9699474,0.0,1.8775463e-06,1.0728836e-06,3.5762787e-07,0.0014233291,0.00030261278,2.0861626e-06,0.00061059,0.006581992
0.9977009,0.0,2.682209e-07,5.364418e-07,0.0,0.0006405413,0.000320822,5.066395e-06,4.0978193e-05,0.00013178587
0.3392168,2.0861626e-07,0.0002347529,2.2172928e-05,1.7881393e-07,0.00071054697,0.00167647,0.04306662,0.046702385,0.0066990554
0.00021290779,2.592802e-06,3.349781e-05,0.00021961331,0.0,0.00040838122,0.9917854,0.03479165,0.00019398332,3.451109e-05
1.4901161e-07,2.9802322e-08,1.2814999e-06,0.99989176,4.172325e-06,0.00036525726,0.0054104626,2.0861626e-07,0.99644893,0.0
1.2814999e-05,0.003983438,0.021634936,2.348423e-05,0.0002824068,0.9995163,0.009265125,7.95722e-06,0.12316769,0.0017645955
0.0025333762,5.9604645e-08,2.592802e-06,3.835559e-05,1.49309635e-05,0.0011833608,0.0051478446,7.778406e-06,0.9245781,0.014723241
1.1026859e-06,0.0026215613,0.5013214,0.021247506,0.000104129314,0.00097098947,0.61656964,1.013279e-06,0.9862052,0.00021928549
0.202467,0.0,6.2584877e-07,2.9802322e-08,2.9802322e-08,7.5399876e-06,5.3435564e-05,0.7366724,0.0004982352,3.2663345e-05
0.003828019,0.0,2.2351742e-05,4.2915344e-06,6.4074993e-06,4.249811e-05,0.0009779334,1.1622906e-06,0.9882457,0.00056800246
0.9788586,0.0,8.037686e-05,6.854534e-07,5.9604645e-08,0.0007813573,0.0005339384,0.0034151077,0.00015878677,0.0006649494
0.9827863,0.0,2.9802322e-08,3.5762787e-07,0.0,0.0004696548,0.000251621,1.7881393e-07,0.024912536,0.00037816167
0.0021441877,1.1920929e-07,0.9988292,2.7537346e-05,8.34465e-07,0.0004823804,0.0015007555,7.95722e-06,0.005161971,2.2172928e-05
0.9908955,0.0,4.440546e-06,8.940697e-08,0.0,0.0005378723,0.0007132292,0.00011011958,0.00062933564,0.00079989433
3.8266182e-05,1.1920929e-07,7.748604e-07,4.9233437e-05,3.2782555e-07,0.00020000339,0.0015081465,4.044175e-05,0.99123806,0.0025945604
0.79903686,0.0,1.2516975e-05,3.8146973e-06,1.1920929e-07,0.0019361675,0.0007613003,1.9520521e-05,0.24116558,0.0021659732
0.93592536,8.940697e-08,0.00017881393,1.4483929e-05,0.0005685687,0.0018550158,0.0003733635,3.46303e-05,0.0024875104,0.013614774
0.012177855,0.0,3.784895e-06,1.5467405e-05,1.5318394e-05,0.00031745434,0.0028105378,4.4703484e-07,0.9248893,0.020280153
0.016459972,0.0,8.6426735e-07,2.208352e-05,2.1457672e-06,0.00077492,0.00058323145,8.6426735e-07,0.9900011,0.0035151243
7.4505806e-06,2.682209e-07,0.99974024,0.0012014508,7.3969364e-05,0.0006579757,0.022214234,2.4735928e-05,0.006899923,0.0008813441
1.3053417e-05,0.0,1.1920929e-07,3.5762787e-07,0.0001591444,0.00023150444,0.002550751,8.940697e-08,0.9975946,3.993511e-06
2.0682812e-05,0.000111311674,0.0009884238,0.00016340613,0.5968092,0.0035027564,0.22755215,0.0011325479,0.039559335,0.089000374
0.07848659,0.0,4.7683716e-07,7.7188015e-06,1.7881393e-07,0.00042900443,0.000543803,2.9802322e-07,0.9609417,0.00575158
5.853176e-05,0.0,8.940697e-07,2.5629997e-06,5.9604645e-08,3.33786e-05,0.0010391772,4.7683716e-07,0.9999267,5.930662e-06
0.99428844,0.0,4.172325e-07,2.9802322e-07,0.0,0.0015254617,0.00036036968,4.7683716e-07,0.0006311536,0.0022501647
0.0055517554,8.940697e-08,4.172325e-06,6.0081482e-05,2.9802322e-06,0.00037431717,0.0008727908,1.6093254e-06,0.99415517,0.00081795454
1.1920929e-07,8.672476e-06,0.12569246,3.4570694e-05,0.0001925826,0.9999623,0.0032140315,4.529953e-06,0.9863112,1.66893e-06
0.27201688,0.0,6.854534e-07,3.993511e-06,0.0,0.0030611455,0.0024566948,1.14142895e-05,0.81895727,0.0020037293
0.9648738,0.0,2.0861626e-07,5.364418e-06,0.0,0.0006804764,0.0005720556,2.5868416e-05,0.024807155,0.000834465
0.98113215,0.0,3.5762787e-06,1.5258789e-05,7.748604e-07,0.00211671,0.0005621314,3.2484531e-06,0.0008495748,0.0023833215
0.00025737286,0.0,6.556511e-06,1.296401e-05,1.1920929e-07,0.00032922626,0.001524359,5.543232e-06,0.99965316,0.00025957823
1.2367964e-05,0.0,0.9999746,8.5532665e-06,3.2782555e-07,0.00023308396,0.0006804168,5.5611134e-05,0.0017841458,1.7285347e-06
0.99344957,0.0,6.854534e-07,1.9967556e-06,0.0,0.001642853,0.00032034516,2.682209e-07,0.00011217594,0.00084349513
0.96326226,0.0,7.432699e-05,3.1292439e-06,3.874302e-07,0.0023377538,0.00045600533,4.1544437e-05,0.0018420815,0.010653436
0.96988934,0.0,2.682209e-07,0.0,2.9802322e-08,4.056096e-05,0.00011634827,0.002099067,0.00016483665,9.983778e-05
0.0,2.0742416e-05,0.9635428,0.00062173605,6.0498714e-05,0.9765886,0.009054095,1.1026859e-06,0.9970077,1.1622906e-06
0.9613623,0.0,4.157424e-05,1.5199184e-06,6.0796738e-06,0.0006592572,0.00030118227,0.0001346767,0.0020515025,0.00033646822
3.9041042e-06,0.97605306,0.00010600686,0.0017759204,2.0861626e-07,0.0047941804,0.0030393302,3.5762787e-07,0.980922,0.00016501546
3.874302e-07,0.98876995,0.0074185133,2.2917986e-05,9.23872e-06,0.44910887,0.0002670288,1.1920929e-07,0.30365837,0.00010642409
0.2767148,0.0,3.5762787e-07,1.3411045e-06,8.940697e-08,0.0006440282,0.0008776784,3.3676624e-06,0.63650393,2.4825335e-05
4.4703484e-07,0.0,0.0023379326,0.9999875,0.29083484,0.00065356493,0.0033746064,3.5762787e-07,0.0035248995,2.9802322e-08
0.96656406,0.0,2.7865171e-05,3.6358833e-06,5.9604645e-07,0.0002758801,0.0006246269,8.940697e-06,0.093672454,4.002452e-05
0.00021025538,0.0,5.8591366e-05,9.834766e-07,2.9802322e-08,0.00073710084,0.011929154,2.3841858e-07,0.9992721,0.00012427568
0.00028717518,0.00019091368,2.026558e-06,7.748604e-07,1.7881393e-07,0.00047028065,0.98881316,2.4735928e-06,0.003300488,0.00014817715
1.3291836e-05,0.0,4.172325e-07,0.9999985,0.0,0.0012179315,0.0012992322,8.940697e-08,6.0886145e-05,8.940697e-08
2.7954578e-05,6.556511e-06,8.940697e-08,2.6524067e-06,5.9604645e-08,0.0020611286,0.99798477,1.513958e-05,0.00054737926,0.0010618865
0.7462533,0.0,6.556511e-07,2.592802e-06,5.364418e-07,0.0006951988,0.00047558546,1.218915e-05,0.30427554,0.00234133
0.80077755,0.0,0.0017885566,1.7881393e-07,1.7285347e-06,0.0003915131,0.0007430017,0.02586615,0.00030714273,0.00079008937
0.0,0.00010848045,0.007909268,0.001525253,0.0018350184,0.99997467,0.0023605525,1.7434359e-05,0.007005155,0.00030514598
1.3768673e-05,0.0,2.6524067e-06,2.3394823e-05,2.9802322e-08,6.1541796e-05,0.0018256903,3.874302e-07,0.9999057,3.7699938e-05
2.861023e-06,7.379055e-05,0.031637937,0.9376265,0.0001154542,0.0004810393,0.008261263,5.9604645e-08,0.97821456,1.3768673e-05
0.4652516,2.682209e-07,6.2584877e-07,4.965067e-05,4.172325e-07,0.00048479438,0.00084871054,1.7881393e-07,0.33393434,0.13634452
5.3048134e-06,0.010107428,0.00011879206,0.0003440678,3.963709e-06,0.0011276603,0.6662498,5.9604645e-08,0.9877213,0.00078985095
0.98894626,0.0,1.5199184e-05,3.874302e-07,5.9604645e-08,0.0017354488,0.0013996363,5.8710575e-05,4.351139e-05,0.0014013052
0.97783375,0.0,2.5331974e-06,2.9802322e-07,0.0,0.00045108795,0.00038185716,0.0062847733,0.000106066465,0.0018427372
0.0002618134,1.1920929e-07,5.662441e-07,0.9999809,3.2782555e-07,0.001974374,0.0012736917,0.0,0.00023272634,3.3974648e-06
0.997208,0.0,2.9802322e-07,1.1920929e-07,0.0,0.002387464,0.0008482933,2.1457672e-06,4.091859e-05,4.181266e-05
0.06348458,1.6242266e-05,0.00060364604,2.3931265e-05,0.00016582012,0.0008160174,0.0063735247,1.937151e-06,0.69547296,0.37057585
0.00010177493,0.0,1.7881393e-07,2.0295382e-05,1.1920929e-07,1.0251999e-05,0.00010430813,0.9951128,0.020519912,0.00568071
4.914403e-05,0.0,2.9802322e-07,5.3942204e-06,2.9802322e-08,3.671646e-05,0.0008069873,1.7940998e-05,0.9999428,1.8924475e-05
0.00020259619,0.0,2.0861626e-07,0.9998882,1.1920929e-07,0.00043913722,0.0015496612,5.9604645e-08,0.00031459332,4.1127205e-06
5.9604645e-08,0.98676074,0.0019145608,0.00013971329,0.7203535,0.0013808012,0.00044226646,6.854534e-07,0.044092596,2.8431416e-05
2.1159649e-05,1.7881393e-07,0.00013330579,6.2584877e-07,7.748604e-07,0.00038686395,0.001154989,1.1026859e-06,0.0006336272,0.9988946
3.3527613e-05,0.0,8.940697e-08,0.9999899,4.4703484e-07,0.00080287457,0.00047940016,0.0,0.00022909045,5.066395e-07
4.479289e-05,5.9604645e-08,9.23872e-07,0.9999958,5.0663948e-05,0.0007507801,0.0027393699,0.0,0.0041599274,5.364418e-07
0.00076806545,0.0,3.5762787e-07,2.4110079e-05,1.937151e-06,0.00020518899,0.0011436045,2.8908253e-06,0.9988478,7.5906515e-05
0.5003804,8.940697e-08,4.7683716e-06,7.033348e-06,1.66893e-06,0.0007251501,0.0012765825,1.9550323e-05,0.3338346,0.008774608
0.9904549,0.0,3.5762787e-07,1.1920929e-07,8.940697e-08,0.00013071299,0.00015467405,0.00016865134,0.0001437962,0.0009730458
5.2154064e-06,4.10676e-05,8.2075596e-05,0.0043341815,3.8594007e-05,0.0032625198,0.9057851,0.010266632,0.00030499697,0.032096773
0.025767714,1.1920929e-07,8.6426735e-06,0.00015336275,1.0937452e-05,0.0013392866,0.001182735,1.013279e-06,0.9169462,0.0072592795
0.9945406,0.0,2.9802322e-08,1.1920929e-07,8.940697e-08,0.00025814772,0.00015702844,1.1920929e-07,0.00011584163,0.0047786534
0.9922323,0.0,9.23872e-07,4.4107437e-06,2.682209e-07,0.00028714538,0.0009980798,8.34465e-07,0.00034207106,0.0006375909
6.404519e-05,0.0,5.2124262e-05,1.5705824e-05,1.4603138e-06,0.000102609396,0.0002759993,0.9982668,0.0022212267,0.003391862
0.95375395,0.0,1.7553568e-05,8.940697e-08,0.0,0.0047162175,0.0005463958,2.464652e-05,0.0058502257,0.0020219684
0.10125393,0.0,8.046627e-06,1.1056662e-05,8.940697e-08,7.7843666e-05,0.0001437366,0.94599676,0.00027054548,0.0011075437
3.1888485e-06,2.0861626e-07,0.9946914,1.180172e-05,5.364418e-07,0.00015977025,0.00095808506,4.8577785e-06,0.9858748,5.6624413e-06
3.105402e-05,8.940697e-08,0.9998417,2.0623207e-05,5.5909157e-05,0.0006790161,0.0008087456,0.00027784705,0.18024376,7.5399876e-06
0.9939975,0.0,0.00012370944,0.0,5.9604645e-08,0.00026658177,0.0003708005,1.0728836e-06,1.4483929e-05,0.00028336048
0.0,5.066395e-07,0.0001527369,0.00032189488,8.940697e-05,1.0,0.00052818656,1.0997057e-05,0.0033626556,8.34465e-07
0.23887324,0.0,5.0395727e-05,2.9802322e-08,0.0,1.3560057e-05,0.00034198165,0.0064964592,8.440018e-05,0.28648224
0.9840938,0.0,2.8312206e-06,1.0728836e-06,0.0,0.0034672022,0.00055480003,8.302927e-05,0.0005505085,0.00436154
0.00013116002,0.0021130443,0.8833525,0.0056468844,0.00027793646,0.009936601,0.09525406,2.4437904e-06,0.24190918,0.0076274574
1.2725592e-05,0.0,0.9869204,0.47750533,3.540516e-05,0.0017411709,0.004131019,0.019283354,0.00020232797,3.272295e-05
8.940697e-08,0.22175923,1.758337e-05,0.99996024,0.0593805,0.061092317,0.5942993,8.940697e-08,0.01991719,1.4990568e-05
1.013279e-06,0.000117093325,0.008940369,0.99985516,0.07393724,0.00220263,0.0039096177,2.8014183e-06,0.064760536,3.8206577e-05
0.0002040565,0.00058710575,0.0,0.00026488304,0.0,5.4836273e-06,0.0013431907,5.9604645e-08,0.0064635873,0.78587735
1.347065e-05,5.990267e-06,0.93240774,0.99689674,6.0796738e-06,0.0013944805,0.0073372424,5.662441e-07,0.0023693442,1.4036894e-05
0.9937949,0.0,4.9471855e-06,1.2516975e-06,2.9802322e-08,0.0011056364,0.0015101433,1.1444092e-05,0.00019389391,0.0006714761
0.005918503,0.0,1.7285347e-06,8.940697e-06,0.9658238,0.00022220612,0.000385046,4.172325e-07,0.16851178,5.7697296e-05
0.0,0.37567902,0.0002747476,0.00048530102,1.7881393e-07,0.0009875596,0.013262719,0.0,0.99944293,6.4074993e-06
2.4199486e-05,0.0,2.9802322e-08,7.301569e-06,5.9604645e-08,0.0001270771,0.0015517175,1.3113022e-06,0.99951386,0.000675261
0.9406542,0.0,8.833408e-05,2.7120113e-06,0.0,0.002670586,0.00092452765,0.0039076507,2.0503998e-05,0.004101008
0.9657396,0.0,9.834766e-07,1.66893e-06,1.3053417e-05,0.00033646822,0.00014176965,1.1920929e-07,0.00087320805,0.016501278
1.1920929e-07,0.009341806,4.7683716e-07,0.99990034,2.7418137e-06,0.0007146895,0.00045990944,5.9604645e-08,0.9881091,0.0
0.88885415,0.0,1.090765e-05,1.1920929e-07,1.8775463e-06,0.00049868226,0.00044119358,3.1292439e-06,0.069217086,0.01143533
1.9729137e-05,5.364418e-07,0.99990094,0.20613882,1.4901161e-07,0.00081020594,0.0015524924,2.810359e-05,0.00074881315,7.1823597e-06
3.796816e-05,2.3841858e-07,0.99940646,8.08835e-05,3.477931e-05,0.0009237826,0.0046314895,1.4603138e-05,0.18580729,6.830692e-05
0.88964397,0.0,2.0772219e-05,1.0430813e-06,6.854534e-07,0.0011975467,0.0003758669,4.0769577e-05,0.014779061,0.0057616234
0.0010243654,0.0,2.82228e-05,1.6987324e-06,4.7683716e-07,7.57575e-05,0.00035005808,5.8412552e-05,0.9986054,0.00018846989
0.2058622,0.004076451,0.54740524,1.1205673e-05,3.7550926e-06,0.005398482,0.123309106,5.093217e-05,0.0027773678,0.00032794476
6.2286854e-06,0.9986772,0.00028571486,0.004234791,8.049607e-05,0.010778278,0.0003964305,1.7881393e-07,0.5445997,0.00012037158
0.97655845,0.0,0.0013677776,1.7881393e-06,2.4437904e-06,0.0013806522,0.0008645952,7.1525574e-06,0.0029235184,0.0014059544
0.99424136,8.940697e-08,3.0398369e-06,2.2351742e-06,0.0,0.0017143786,0.005673349,1.1026859e-06,0.0003529191,9.530783e-05
0.090809435,5.9604645e-08,0.12467617,1.001358e-05,7.0631504e-06,0.00083881617,0.0005841255,2.732873e-05,0.7424626,0.00013393164
4.798174e-06,1.3649464e-05,6.854534e-07,0.9999943,8.106232e-06,0.0012865663,0.006883621,8.940697e-08,0.2853851,1.6987324e-06
0.039822638,0.0,9.030104e-06,8.940697e-08,0.0,0.000731349,0.0003965199,4.8577785e-06,0.95038617,0.0019010901
0.51575184,0.0,4.053116e-06,1.3202429e-05,7.748604e-07,0.0007458329,0.005518675,6.8992376e-05,0.7391557,0.00016388297
2.0861626e-06,0.99876237,0.00010788441,0.003748715,1.1920929e-07,0.009717256,0.00032243133,5.9604645e-08,0.92457795,0.0001578629
3.427267e-06,1.1920929e-07,5.662441e-07,0.99999917,1.1920929e-07,0.0006221235,0.0040632784,0.0,0.0005390644,2.0861626e-07
0.9911271,0.0,4.172325e-07,1.7881393e-07,0.0,0.00029614568,0.00028797984,5.0008297e-05,2.9057264e-05,0.0002863109
0.9901078,0.0,3.2782555e-07,1.1920929e-07,2.3841858e-07,0.0011074245,0.0009970367,3.2484531e-06,0.00037699938,0.0010949373
0.9941334,0.0,1.2814999e-06,2.9802322e-08,0.0,0.0010443926,0.00065019727,1.0728836e-06,1.7791986e-05,5.4836273e-05
0.0032834709,4.7683716e-07,5.185604e-06,8.165836e-06,5.364418e-07,0.0008906722,0.013587892,1.1622906e-06,0.083722204,0.8145255
8.34465e-07,0.9966521,2.6583672e-05,0.00035747886,1.4901161e-07,0.00078365207,0.00027793646,0.0,0.99924666,1.937151e-06
1.0728836e-06,4.61936e-06,0.002736032,8.377433e-05,0.000105410814,0.99999726,0.0040162504,5.8978796e-05,0.48631355,7.158518e-05
0.99318343,0.0,8.940697e-08,5.9604645e-07,0.0,0.0010204315,0.00052151084,1.7881393e-07,0.001164496,0.0002348721
4.798174e-06,0.000495404,0.9064438,0.0011015832,0.017609477,0.0058428347,0.17540398,0.0013801157,0.008799195,0.0049443245
0.0059551,2.3245811e-06,0.0011137128,2.2053719e-06,1.1622906e-06,0.0007662773,0.0019629896,7.104874e-05,0.0011526346,0.9731608
1.591444e-05,0.0,0.0007415414,4.1007996e-05,0.9057603,6.5267086e-06,0.001978606,2.4735928e-06,0.99932665,1.296401e-05
0.00010180473,6.8455935e-05,0.00010794401,0.00011175871,2.861023e-06,0.9999909,0.059398353,7.122755e-06,0.0069839656,0.00020080805
0.90998465,3.7550926e-06,1.2874603e-05,4.1872263e-05,7.0929527e-06,0.001473695,0.0005637109,1.7881393e-07,0.049957573,0.0025038123
0.72351897,4.5001507e-06,6.0498714e-06,2.0861626e-07,0.0,0.0006708503,0.0015803874,1.3709068e-06,5.3197145e-05,0.44804642
6.765127e-06,0.9987723,1.0639429e-05,0.0009011328,4.1127205e-06,0.002323538,0.0002849102,0.0,0.043788493,0.0016824603
0.9954724,0.0,1.4901161e-07,1.4901161e-07,0.0,0.0024344325,0.0019932985,1.847744e-06,3.2812357e-05,5.0842762e-05
0.006163001,0.0,0.00015047193,5.030632e-05,7.0631504e-06,0.000154078,0.0006212294,3.0755997e-05,0.99347925,0.00067281723
4.2915344e-06,1.23381615e-05,8.124113e-05,5.066395e-07,2.95043e-06,0.0056939423,0.97906286,2.9206276e-06,0.74401706,0.0040198565
0.99803734,0.0,2.9802322e-08,2.9802322e-08,0.0,0.00028556585,0.00022995472,1.2218952e-06,0.00017651916,7.620454e-05
3.5762787e-07,8.940697e-08,1.1026859e-05,9.23872e-07,1.7881393e-07,0.99999666,0.0013436973,2.682209e-07,0.04543057,3.683567e-05
0.2745867,7.748604e-07,0.830902,1.2814999e-06,2.0861626e-07,0.0003156364,0.0011923313,0.0057785213,0.0001450777,0.00020250678
0.00030830503,1.4901161e-07,2.0861626e-07,0.99993,5.9604645e-08,0.0005810559,0.0004759431,5.9604645e-08,0.0033905208,4.6491623e-06
0.21198845,0.0,0.000570029,1.3113022e-06,1.6093254e-06,0.00028160214,0.0017072558,0.0065944195,0.008475423,0.58052146
0.76763535,2.9802322e-08,4.7683716e-07,2.3245811e-06,9.834766e-07,0.00030365586,0.0006700456,1.79708e-05,0.7436477,0.00028845668
0.0130286515,3.9607286e-05,1.92523e-05,1.5735626e-05,2.3841858e-06,0.0014777482,0.60467094,1.1622906e-06,8.85129e-06,0.0017264485
0.0010992587,0.0,1.4901161e-07,2.977252e-05,8.34465e-07,1.9431114e-05,0.00024181604,2.3841858e-07,0.9985708,8.097291e-05
5.170703e-05,0.99645925,4.3034554e-05,0.00028720498,0.00022429228,0.0019411445,0.00037005544,5.9604645e-08,0.030412376,0.006128758
0.9957609,0.0,3.2782555e-07,4.7385693e-06,0.0,0.002277851,0.0009839833,3.606081e-06,0.00017654896,0.00012806058
0.033232093,6.2584877e-06,3.1352043e-05,6.636977e-05,5.364418e-07,0.00024226308,0.0023280382,2.0861626e-07,0.72710705,0.06862742
0.995346,0.0,1.7881393e-07,5.9604645e-08,0.0,0.0019391775,0.00047439337,8.195639e-06,0.00033810735,0.00025883317
0.2576605,1.5199184e-06,0.9445055,3.0219555e-05,9.23872e-07,0.00045871735,0.00073611736,0.00023058057,6.687641e-05,0.00011751056
0.92703605,0.0,8.821487e-06,4.3809414e-06,0.003940463,0.0013756454,0.003018558,8.821487e-06,5.698204e-05,0.0058479905
0.983659,0.0,2.5331974e-06,5.9604645e-08,2.9802322e-08,0.0010703504,0.00041809678,0.00033473969,0.00039237738,0.0009875894
0.006649226,2.3782253e-05,1.2427568e-05,0.00022879243,9.575486e-05,0.0016021729,0.8829895,1.2844801e-05,0.00015807152,0.028395146
0.88269216,1.4305115e-06,0.056057304,2.9802322e-07,3.2782555e-07,0.000454247,0.00049361587,0.00018399954,0.00041100383,0.0029492676
0.77797997,0.0,2.9802322e-08,4.4703484e-07,0.0,2.0891428e-05,8.070469e-05,0.025349498,7.4893236e-05,0.00013253093
0.0,2.0861626e-07,6.145239e-05,0.00053322315,1.21593475e-05,0.99999917,0.003902644,5.325675e-05,0.97766435,1.2814999e-06
1.1026859e-06,1.1920929e-07,3.1918287e-05,0.9999993,6.106496e-05,0.0003825426,0.0011526048,2.0861626e-07,0.00016307831,2.0861626e-07
0.003272891,0.0,9.983778e-06,8.34465e-07,2.0861626e-07,0.00020933151,0.00047430396,1.7285347e-06,0.9869778,0.005881816
0.99754083,0.0,4.7683716e-07,5.9604645e-08,0.0,0.0012246072,0.0004645586,2.3841858e-07,0.0005437732,0.00024741888
1.66893e-05,4.172325e-07,0.99678624,0.0003090799,0.18193096,0.0010400116,0.002423644,0.0001513958,0.0002963543,1.04904175e-05
0.0,8.583069e-06,0.9970571,0.9990939,0.0003837049,0.008221418,0.2327567,2.9802322e-07,0.0006261468,8.940697e-08
0.98723805,5.9604645e-08,1.013279e-06,2.0861626e-07,3.874302e-07,0.00030890107,0.0005310774,1.3411045e-06,0.002640307,0.014898986
0.0001155138,0.0,0.001180172,9.179115e-06,3.5762787e-07,0.0001039803,0.0028211772,0.00042831898,0.9993687,4.607439e-05
8.910894e-06,3.0994415e-06,7.748604e-07,2.5629997e-06,0.0,0.0027503073,0.9990196,6.2584877e-07,6.866455e-05,0.00043055415
3.1024218e-05,1.2665987e-05,0.9947429,0.0030825138,0.001912713,0.0009976327,0.01004836,8.255243e-06,0.30026922,0.0001244843
0.0038583577,0.0,1.3768673e-05,1.1920929e-06,2.8014183e-06,9.915233e-05,0.0002616644,1.3649464e-05,0.9973947,8.404255e-06
2.3841858e-07,0.95613873,0.0015254319,0.00326851,0.00030261278,0.9948931,0.015947014,1.4901161e-06,0.10304344,1.4394522e-05
1.4901161e-07,0.0,3.9845705e-05,0.9999911,0.00033432245,0.00058436394,0.024893045,0.0,0.0018713772,4.3213367e-06
0.0,0.9985951,6.651878e-05,0.9996009,1.3411045e-05,0.012558967,0.0072161555,0.0,0.007799983,1.0788441e-05
0.47409692,0.0,7.748604e-07,3.0100346e-06,0.0,0.0008084774,0.0016077161,0.0034788847,0.56805694,0.000110030174
1.5079975e-05,1.5854836e-05,0.00024855137,2.0861626e-05,4.976988e-06,0.9999989,0.0008627176,0.00084525347,0.03086418,7.8082085e-06
0.9890226,0.0,1.7285347e-06,2.3841858e-07,1.4603138e-06,0.00049623847,0.0004427731,6.1929226e-05,0.001127243,0.000810802
2.9802322e-08,0.00012874603,0.9688376,0.0028637648,0.0012226999,0.99974465,0.005620748,1.5586615e-05,0.07640362,1.9729137e-05
0.013946027,0.0,5.364418e-07,6.642938e-05,0.0,0.0026268363,0.0010922253,0.0005314052,0.9804576,0.00031262636
5.9604645e-08,1.7881393e-07,4.4703484e-07,0.999991,0.18907669,0.0005156994,0.0033386946,6.556511e-07,0.00038942695,5.990267e-06
4.813075e-05,8.940697e-08,3.5762787e-07,2.592802e-06,0.0,9.3877316e-05,0.00069615245,0.0,0.999772,0.00028848648
0.96939385,0.0,1.9073486e-06,3.8444996e-06,2.682209e-07,0.0020706952,0.00039589405,2.8580427e-05,0.0010408759,0.045928955
1.1026859e-06,1.1920929e-07,2.9802322e-08,0.99999833,0.0006685853,0.0014290512,0.0005605817,2.9802322e-08,0.009282947,7.4505806e-07
0.94915694,0.0,3.5464764e-05,1.4215708e-05,8.34465e-07,0.00627017,0.0009925663,1.6719103e-05,0.07255858,0.0040757954
3.3080578e-06,0.0,2.9802322e-08,0.0,0.0,8.940697e-08,1.052022e-05,0.0,7.033348e-06,0.99998724
0.0,4.8279762e-05,2.861023e-06,0.99998057,2.9802322e-07,0.0025588274,0.97904146,2.3841858e-07,0.00011378527,2.682209e-07
0.0,3.1352043e-05,0.00071546435,6.937981e-05,0.33313453,0.99999964,0.0013928115,0.0003090799,0.0007304549,4.5895576e-06
0.9884242,0.0,2.8908253e-06,6.2584877e-07,3.874302e-07,0.0118094385,0.0008363724,2.9206276e-06,4.3332577e-05,0.00038918853
9.834766e-07,0.0,0.0,0.0,0.0,2.682209e-07,2.3245811e-06,0.0,2.6226044e-06,0.99999285
0.0036567152,0.0,4.172325e-07,3.5762787e-05,1.9669533e-06,0.0004634261,0.0019308627,2.3245811e-06,0.9965632,1.4901161e-05
0.0006608963,0.0,4.4703484e-07,2.8431416e-05,5.9604645e-08,0.00017094612,0.0008351505,8.940697e-08,0.9992825,0.00013202429
0.039193332,0.0,2.3841858e-07,5.662441e-07,2.3841858e-07,0.0001333952,0.00021335483,2.1457672e-06,0.98285854,0.00031879544
0.0063312054,0.0009939373,2.1845102e-05,0.00012362003,3.2782555e-06,0.010116398,0.56635416,1.22487545e-05,0.0010845661,0.0032207668
0.03305328,0.0,1.7136335e-05,5.8710575e-05,4.4703484e-07,0.00087091327,0.004550427,0.49431896,0.0035134554,0.0060736537
0.00269112,0.00011149049,0.77474517,1.7881393e-06,1.2218952e-06,0.00086808205,8.657575e-05,0.0031638741,0.002794832,0.0005968511
0.0002938509,0.0,8.940697e-08,7.4505806e-07,0.0,0.00043568015,0.0014811456,2.0861626e-07,0.9993992,4.3690205e-05
1.8388033e-05,0.99801576,0.0007534623,0.0002887845,7.927418e-06,0.0044130087,0.0012661517,6.28829e-06,0.002073586,0.0006246865
1.1920929e-07,0.0007930696,0.00022870302,0.9999447,0.024780035,0.0022853613,0.0076906383,0.0,0.15135023,2.7120113e-06
0.004220158,5.698204e-05,0.00018119812,1.0460615e-05,1.7166138e-05,5.3942204e-05,0.00019010901,5.9604645e-08,0.020096809,0.8993108
0.17022732,0.0,1.7881393e-06,8.940697e-08,0.0,1.4424324e-05,0.00010919571,0.9068232,3.5703182e-05,3.5256147e-05
3.516674e-06,4.172325e-07,8.493662e-06,0.9999957,0.00035583973,0.0013790131,0.002338767,4.172325e-07,0.16089773,2.3841858e-07
0.9330853,6.854534e-07,0.00021028519,8.940697e-07,9.208918e-06,0.00027897954,0.0011149347,0.00015202165,0.047069818,0.0042146742
0.9909059,0.0,1.0579824e-05,7.5399876e-06,0.0,0.0011994541,0.00027033687,1.4007092e-06,0.0005405247,0.00023344159
0.990579,0.0,2.4437904e-06,2.95043e-06,8.940697e-08,0.00092327595,0.00039449334,2.6583672e-05,0.00067922473,0.0007928014
0.8591628,0.0,4.172325e-07,5.9604645e-08,0.0,0.0022180378,0.0024152398,7.1525574e-07,0.053474784,0.021377832
2.682209e-07,2.3543835e-06,0.61794055,0.0004451275,0.9330432,0.011361927,0.0026173294,2.8014183e-06,0.99711746,1.9073486e-06
2.771616e-06,6.2584877e-07,0.0015264153,3.7372112e-05,8.136034e-06,0.99999994,0.002196759,0.0008828342,0.012534648,5.364418e-07
0.9878291,0.0,2.682209e-07,8.225441e-06,9.23872e-07,0.002444923,0.0012532473,1.9967556e-06,0.00057682395,0.0067602396
0.83437085,0.0,4.6789646e-06,1.013279e-06,2.413988e-06,0.00062698126,0.00020951033,1.9907951e-05,0.00021091104,0.30098176
0.99311614,0.0,4.4703484e-07,8.046627e-07,2.682209e-07,0.0011954904,0.00085777044,3.85046e-05,0.00010147691,0.0013926327
5.9604645e-08,0.0,0.0,0.0,0.0,0.0,5.9604645e-07,0.0,0.00016057491,0.9999534
0.0011856258,0.0009070337,0.15929809,0.00018879771,2.2172928e-05,0.001439184,0.058103085,2.4437904e-05,0.9948421,0.00060123205
0.0033475459,1.7285347e-06,0.9477125,3.9428473e-05,9.834766e-07,0.00092458725,0.0004246533,4.7385693e-06,0.0018984675,0.0005774796
0.0024506748,0.00021314621,4.6163797e-05,2.7120113e-06,1.5467405e-05,0.0038843155,0.59218246,6.943941e-06,0.88965786,0.0050396323
0.0018184781,0.0,1.692772e-05,2.6762486e-05,0.7286166,0.072113454,0.00012645125,3.7252903e-05,0.0012055039,0.00021493435
0.29987624,6.2584877e-07,1.630187e-05,0.00015813112,1.7881393e-07,0.00042673945,0.0005146265,0.00056782365,0.018075407,0.42648917
0.00024536252,5.9604645e-08,5.9604645e-08,0.9998852,1.4901161e-07,0.00086450577,0.00052565336,0.0,0.0009674728,6.765127e-06
2.3841858e-07,1.1026859e-06,0.0100936,0.00014308095,0.05572024,0.00023019314,0.045820683,0.0006273389,0.9993129,5.8084726e-05
0.99483633,0.0,2.9802322e-08,2.682209e-07,0.0,0.00074228644,0.00032553077,5.9604645e-08,0.0007919967,0.0002899766
0.84393704,0.0,5.352497e-05,2.2053719e-06,8.940697e-08,0.0005184114,0.0013049543,0.14014062,0.013504982,0.02099523
0.970595,0.0,5.662441e-07,3.5762787e-07,2.682209e-07,0.0005905926,0.0006506741,5.9604645e-08,0.014944166,0.0012307763
4.2527914e-05,0.0,2.682209e-07,7.4505806e-07,6.854534e-07,5.841255e-06,0.00043281913,1.4901161e-07,0.9999066,3.0994415e-06
8.046627e-07,0.99797404,1.50203705e-05,0.004158139,7.867813e-06,0.00096830726,0.00026980042,2.9802322e-08,0.99862677,2.861023e-06
0.9927187,2.9802322e-07,4.529953e-06,7.748604e-07,1.1920929e-07,0.0004107356,0.0007380843,8.940697e-08,3.710389e-05,0.0025148392
0.18164492,4.053116e-06,0.81594837,1.463294e-05,1.3113022e-06,0.00046357512,0.0007762015,3.1471252e-05,0.015531659,0.0002527833
2.682209e-07,3.093481e-05,4.839897e-05,0.9998646,0.00014200807,0.0038393438,0.05311522,2.1755695e-06,0.9379482,0.0
0.96972406,0.0,1.4007092e-06,4.172325e-07,0.0,0.00029829144,0.00021642447,0.00860399,8.144975e-05,0.00012481213
1.2278557e-05,0.0,0.999912,0.001895994,7.1167946e-05,0.0002040565,0.0013400614,1.2814999e-06,0.04240784,3.7401915e-05
8.574128e-05,7.149577e-05,0.00020629168,6.330013e-05,3.1083822e-05,0.0019567907,0.9978894,4.133582e-05,0.15214202,0.0019298494
1.6510487e-05,9.766221e-05,0.00026091933,2.0563602e-06,1.5199184e-06,0.0002385974,0.0066877604,5.811453e-06,0.008450806,0.9954423
0.992465,0.0,2.3841858e-07,5.9604645e-07,0.0,0.00096821785,0.0014692843,1.1116266e-05,0.00023913383,0.00088986754
0.020330817,3.4570694e-06,0.00084003806,3.3080578e-06,5.9604645e-08,0.94471896,0.0042012334,4.7683716e-06,0.00029191375,1.385808e-05
5.9604645e-08,0.9892452,1.50203705e-05,0.98794603,1.3113022e-06,0.016991466,0.0022110045,0.0,0.9812267,1.1324883e-06
5.364418e-06,0.0023552775,0.0007818043,0.0017389953,1.6093254e-05,0.9998195,0.1778417,0.00020483136,0.019810528,0.0004784763
5.275011e-06,1.7881393e-07,0.94075525,0.0016878545,4.053116e-05,7.18236e-05,0.0004556477,0.8707309,0.0012105703,0.00038552284
8.869171e-05,0.0,1.2874603e-05,2.5629997e-06,2.9802322e-07,0.0003954172,0.00048694015,0.0051268935,0.9771571,0.013901442
3.424287e-05,0.9984685,5.8233738e-05,0.00039985776,6.7949295e-06,0.006864965,0.0008971393,5.662441e-07,0.023931384,0.0016275346
0.0,1.4007092e-06,0.98670685,0.99912155,0.0012840927,0.0004352033,0.0018145144,1.1920929e-07,0.993804,0.0
3.1292439e-06,0.0,4.1127205e-06,2.3543835e-06,0.0,4.7296286e-05,0.00063347816,0.00044336915,0.99809575,0.0018588603
1.7881393e-07,0.0002733767,0.0020574927,0.99985564,0.97574234,0.9823754,0.04441333,1.9967556e-06,0.00089380145,8.940697e-08
0.95172846,4.7683716e-07,6.535649e-05,1.1622906e-06,1.1026859e-06,0.00023898482,0.00058847666,1.1652708e-05,0.0005469322,0.025861561
0.98483324,0.0,1.4603138e-06,4.4703484e-07,3.5762787e-07,0.0009764433,0.00056907535,8.583069e-06,0.00014358759,0.00056526065
3.0398369e-06,7.399917e-05,0.1906935,9.569526e-05,3.7252903e-06,0.9999702,0.0024276078,0.00026738644,0.0019166768,0.00040829182
0.0065917373,0.0,1.1771917e-05,6.6161156e-06,8.940697e-08,3.257394e-05,0.0004645288,0.9888799,9.6946955e-05,0.00052911043
0.0,1.1920929e-07,0.00022259355,2.6464462e-05,0.00015181303,1.0,0.00012308359,1.7881393e-05,0.016447395,1.1920929e-07
0.0024465919,2.9802322e-08,0.00025480986,7.212162e-06,8.34465e-07,0.9993057,0.00043183565,1.758337e-05,0.01083228,0.00025123358
0.0,5.3584576e-05,0.004316151,0.0005135238,5.888939e-05,1.0,0.0039870143,1.0848045e-05,0.03443554,1.23381615e-05
0.0001103282,2.0861626e-07,0.0009537339,6.854534e-07,1.7881393e-06,7.277727e-05,0.0010780692,0.0001822114,0.020855695,0.99260736
4.142523e-06,8.940697e-08,0.99992096,0.00043675303,3.0428171e-05,0.00032043457,0.001791209,0.0007715523,0.0009075999,0.0006150305
8.285046e-06,0.0,2.771616e-06,0.9999902,5.364418e-07,0.00053817034,0.0011439323,2.682209e-07,9.417534e-05,6.2584877e-07
0.63190234,2.9802322e-08,8.204579e-05,0.000110954046,3.9041042e-06,0.0050602853,0.000792861,1.6391277e-06,0.101246744,0.04148385
0.9986856,0.0,5.9604645e-08,2.9802322e-08,0.0,0.00024217367,0.00011074543,7.748604e-07,1.630187e-05,8.761883e-05
0.010822058,2.0861626e-07,0.0003696382,0.000587374,6.368756e-05,0.9986402,0.0011018217,0.00043275952,0.022572964,0.0011316538
0.005972475,6.2584877e-07,3.1501055e-05,4.3809414e-06,4.7683716e-07,0.005030036,0.44038558,2.0861626e-05,0.037400246,0.0018571913
2.1755695e-06,2.6524067e-06,0.98134637,0.0003401339,0.008375168,0.00805676,0.004879415,1.5318394e-05,0.043242097,0.0007492602
0.0067570508,0.0,5.841255e-06,7.748604e-07,0.0,0.9897194,0.0032221675,0.00018981099,0.0012432039,0.00016948581
0.7947341,0.0,5.9604645e-07,1.5199184e-06,8.046627e-07,0.00030499697,0.00020703673,7.262826e-05,0.021758765,0.05003503
0.03370589,4.172325e-07,1.2099743e-05,0.0,8.940697e-08,0.000102669,0.0004951358,9.602308e-05,0.0019017756,0.8530813
0.0003002882,1.5199184e-06,6.3449144e-05,0.0006379783,3.4421682e-05,0.9816728,0.0020307004,8.109212e-05,0.45277417,0.0019251704
0.09585893,1.1920929e-07,0.0013664067,1.4007092e-06,2.0712614e-05,0.00097084045,0.010640144,0.47205853,0.0018763244,0.012122333
0.0061616004,3.7252903e-06,1.3798475e-05,0.00025382638,1.4603138e-06,0.92131984,0.009959668,1.7791986e-05,0.054199517,0.0118276775
0.97914755,0.0,6.854534e-07,1.7881393e-07,0.0,0.00017136335,0.00013151765,0.00017875433,1.54078e-05,4.7385693e-05
0.88458335,2.9802322e-08,0.0,2.9206276e-06,0.0,0.00063061714,0.0005578697,4.6789646e-06,0.32522443,0.000166744
1.8775463e-06,4.464388e-05,0.94553745,8.493662e-05,1.2099743e-05,0.9999173,0.0037042499,3.799796e-05,0.00393337,2.026558e-06
0.97168124,5.9604645e-08,4.1633844e-05,5.066395e-07,3.2782555e-06,0.0010216534,0.0009784102,3.2007694e-05,0.007121116,0.002097994
8.940697e-08,0.00067332387,1.7285347e-06,0.9999807,0.0011071861,0.028086185,0.77658963,5.9604645e-08,0.0018097162,3.606081e-06
0.95447123,0.0,4.3809414e-06,4.172325e-07,6.645918e-06,0.0020608306,0.00039246678,0.00021716952,0.00049477816,0.034228235
2.0503998e-05,5.632639e-06,4.4703484e-06,0.9999389,2.115965e-06,0.00082731247,0.0012170076,0.0,0.00300169,7.119775e-05
0.9774617,8.940697e-08,0.0,3.5762787e-07,1.1920929e-07,9.211898e-05,0.00025048852,5.9604645e-08,0.010072172,0.0005797446
0.00012493134,3.9041042e-06,2.771616e-06,8.7976456e-05,1.1026859e-05,0.00050500035,0.0043897033,1.3023615e-05,0.98151535,0.0056663156
2.9802322e-07,0.00018554926,0.00072678924,0.00017210841,3.2782555e-07,0.99999857,0.005554527,2.2351742e-06,0.0085169375,7.584691e-05
1.2516975e-06,1.7881393e-07,1.1920929e-05,0.99998116,9.074807e-05,0.0003437996,0.0049127936,1.1622906e-06,0.0025028586,0.00017622113
0.9867819,0.0,2.592802e-06,2.95043e-06,5.9604645e-08,0.002213627,0.0022026002,1.3411045e-06,0.0012420118,0.00033032894
2.4199486e-05,0.0,8.940697e-08,1.8447638e-05,1.1920929e-07,7.5399876e-05,0.00032812357,1.1920929e-07,0.99995774,4.7385693e-06
0.06480631,1.4901161e-07,0.9744233,1.0728836e-06,8.34465e-07,0.00044348836,0.002023667,0.0002644658,0.0005463958,0.00010085106
2.0980835e-05,0.99940026,5.298853e-05,9.62317e-05,3.5464764e-06,0.009139091,7.632375e-05,8.940697e-08,0.004441768,5.7071447e-05
0.9932356,0.0,2.0861626e-07,2.9802322e-07,8.940697e-08,0.0008675754,0.00037154555,3.8444996e-06,0.00042033195,0.00024470687
0.0034742057,1.7881393e-07,2.0563602e-05,1.013279e-06,2.3841858e-07,0.00013440847,0.0033854544,9.894371e-06,0.99907607,2.604723e-05
0.6458385,0.0,3.5464764e-06,1.1920929e-07,4.9322844e-05,0.00025472045,0.00034186244,4.056096e-05,0.12709913,0.007035792
2.9802322e-08,6.660819e-05,0.9840267,0.21035999,0.00022634864,0.014126629,0.5922162,6.2584877e-07,0.9847134,2.115965e-06
0.01289171,0.0,4.172325e-07,5.632639e-06,0.0,0.00014790893,0.0002898574,1.859665e-05,0.9916806,5.120039e-05
0.98462355,0.0,1.3709068e-06,2.9802322e-07,2.3841858e-06,0.0018748045,0.0013433099,2.1755695e-06,0.00018328428,0.003298074
0.6940124,0.0,2.682209e-07,0.0,0.0,5.00679e-06,7.3611736e-05,0.32396144,0.00012591481,0.00012627244
0.03571272,1.7881393e-07,2.682209e-07,2.682209e-07,2.9802322e-08,0.0023365617,0.51711565,1.2218952e-06,0.00012630224,8.752942e-05
0.8634434,1.2814999e-06,8.34465e-07,8.85129e-06,8.940697e-08,0.0013875365,0.00095549226,9.536743e-07,0.32068202,0.0026339293
0.7716153,8.940697e-08,8.225441e-06,4.4107437e-06,7.4505806e-07,0.00017133355,0.00045916438,5.9604645e-08,0.23469141,0.01037091
0.00085511804,0.0,2.682209e-07,2.9802322e-08,0.0,0.00010240078,0.0016591251,8.225441e-06,0.99918586,4.196167e-05
0.61413366,4.7683716e-07,1.21593475e-05,2.5242567e-05,5.364418e-07,0.0010475218,0.025000155,0.007204592,0.00092053413,0.022244662
5.3942204e-06,0.0,0.00023946166,3.4570694e-06,1.66893e-06,1.2367964e-05,0.0039913654,1.2725592e-05,0.99993134,4.6372414e-05
2.0861626e-07,0.0,8.1539154e-05,0.9999409,0.99954057,0.00015962124,0.0007376373,8.940697e-08,0.008192033,8.940697e-08
0.96820176,0.0,1.0728836e-06,2.682209e-07,0.0,0.001706332,0.00046819448,1.1920929e-07,0.0021058917,0.008444667
0.9150673,2.0861626e-07,0.0030100048,2.9802322e-07,3.5762787e-07,0.00058054924,0.00058335066,3.7521124e-05,0.033898175,0.0051507056
0.556581,0.0,3.796816e-05,8.34465e-07,0.0,0.0008160472,0.0010538101,0.00063219666,0.1268945,0.0012662113
1.40070915e-05,9.23872e-07,1.4901161e-07,3.5762787e-06,1.013279e-06,0.0023937821,0.9955269,1.3113022e-06,0.001414299,0.0061713755
0.00061157346,0.0,0.00025057793,3.454089e-05,1.3440847e-05,0.00018957257,0.00057032704,0.8747139,0.0047409832,0.0027540028
1.5795231e-06,1.6987324e-06,2.6732683e-05,0.9999014,1.1920929e-06,0.00024980307,0.0024876595,7.212162e-06,0.0004607141,0.0001373291
1.1652708e-05,2.8699636e-05,3.9339066e-06,4.2915344e-05,1.013279e-06,0.9098505,0.92745304,1.2427568e-05,0.003453076,0.011422932
3.4570694e-06,3.5762787e-07,0.0072610974,0.0002592802,0.029668927,0.002071172,0.09719008,5.6803226e-05,0.9512857,0.00052553415
4.9561262e-05,8.940697e-08,0.9998406,0.0007439554,3.2186508e-06,0.00037515163,0.0031191409,2.5331974e-06,0.18104425,1.1920929e-05
3.620982e-05,0.0,4.7683716e-07,5.364418e-07,0.0,5.9455633e-05,0.0010259151,7.748604e-07,0.9998884,4.002452e-05
0.9966205,0.0,4.4703484e-07,1.1920929e-07,0.0,0.00067803264,0.0003284216,9.953976e-06,0.00010293722,2.4855137e-05
0.98637795,0.0,2.3245811e-06,8.374453e-06,2.9802322e-08,0.003067404,0.0025859773,8.85129e-06,0.00026151538,0.0028958023
0.00012812018,0.0,0.0,0.9999819,1.7881393e-07,0.0002143681,0.00012627244,0.0,1.0162592e-05,1.3113022e-06
7.5250864e-05,0.0,1.4156103e-05,0.9999833,2.2351742e-06,0.00070241094,0.00075545907,0.0,1.4722347e-05,9.23872e-07
0.0013610721,0.0,1.1831522e-05,2.3841858e-07,1.1920929e-06,2.399087e-05,0.0005877018,8.314848e-06,0.9851061,0.00013560057
0.99461484,0.0,4.7683716e-07,1.6987324e-06,2.9802322e-08,0.0006199479,0.00038200617,2.682209e-07,0.0005220771,0.00040340424
0.95139015,1.1920929e-07,3.1739473e-05,5.4836273e-06,3.2782555e-07,0.0028824508,0.0023988485,4.9829483e-05,0.003110826,0.0021007657
0.01222834,9.387732e-06,3.5762787e-07,9.4771385e-06,2.9802322e-07,0.0036031008,0.4731401,0.0,0.0005247295,0.00089615583
0.00065255165,8.314848e-06,0.00021490455,0.00011277199,3.4421682e-05,0.01585114,0.9778091,0.00032883883,0.001026839,0.0005964041
0.92802584,6.854534e-07,1.0102987e-05,0.00019544363,2.3841858e-07,0.0049078166,0.0008057356,1.257658e-05,0.09661877,0.0019201636
0.04042083,0.0,1.2516975e-06,5.066395e-07,0.0,0.00080934167,0.8806625,8.940697e-08,0.00089508295,2.8699636e-05
0.00012034178,3.874302e-07,0.0002783239,1.8775463e-06,0.00011628866,0.0005238354,0.0067160428,0.00029331446,0.8581182,0.10455248
0.29629603,0.0,3.1590462e-06,1.6868114e-05,1.4901161e-07,0.0009982586,0.0006457567,4.87864e-05,0.8090731,0.009676158
4.1753054e-05,2.9802322e-08,4.172325e-07,0.00010833144,5.9604645e-08,0.00010073185,0.00078094006,1.4901161e-07,0.9998373,8.571148e-05
1.4901161e-07,0.999541,2.759695e-05,0.0015324354,3.8146973e-06,0.0005913079,0.00045359135,0.0,0.99548995,8.314848e-06
0.00045627356,0.0,1.1026859e-06,4.7385693e-06,2.9802322e-07,0.00017187,0.00051024556,6.7949295e-06,0.9981904,0.0032681227
3.4332275e-05,2.9802322e-08,0.99990773,8.445978e-05,3.7550926e-06,0.0003874302,0.0008561909,1.090765e-05,0.16267374,4.261732e-06
4.3809414e-05,0.9990114,0.00027000904,0.09787747,1.2874603e-05,0.0045598745,5.3942204e-05,1.9073486e-06,0.026070327,0.00048732758
0.15538621,0.0,1.4007092e-06,2.2649765e-06,1.4901161e-07,0.0006593168,0.0011772215,1.1622906e-06,0.835638,0.0062305927
3.6358833e-06,0.98944783,1.129508e-05,0.010169476,3.5762787e-07,0.0021745563,0.0056553185,0.0,0.9824065,0.00050637126
9.089708e-06,0.99294865,3.1113625e-05,0.01509881,0.0002757907,0.0013514459,0.0014113188,5.9604645e-08,0.55965054,0.00012722611
6.0617924e-05,0.96446514,0.008675039,0.0015438795,0.00015851855,0.0035166144,0.0021397173,1.3381243e-05,0.0015204251,0.011904448
0.0,4.7683716e-07,0.0006105602,6.738305e-05,0.000111460686,1.0,0.0012016594,1.0579824e-05,0.030268699,8.940697e-07
6.6161156e-06,0.8289416,0.006098509,7.262826e-05,0.00028011203,0.0068862736,0.02156642,0.000205338,0.0001977086,0.0053507388
1.5795231e-06,1.4901161e-07,0.99148244,4.3809414e-06,0.00015974045,7.05421e-05,0.00027406216,0.00012853742,0.65450984,1.4901161e-06
0.852564,2.3841858e-07,3.9994717e-05,1.1920929e-07,2.9802322e-07,0.0006328523,0.00053727627,4.029274e-05,3.8266182e-05,0.36244524
0.0,0.0005071163,0.0018791258,0.88330114,0.5119245,0.9999924,0.042478412,3.0875206e-05,0.015404284,4.142523e-06
0.9617169,0.0,1.9669533e-06,1.719594e-05,0.0018526912,0.00061249733,0.0005095303,2.2053719e-06,0.006991297,0.00081962347
3.5762787e-07,0.0011558533,3.1262636e-05,0.9999753,3.9875507e-05,0.079587996,0.18583426,3.5762787e-07,0.42066365,1.937151e-06
0.05682698,0.0,3.6984682e-05,8.225441e-06,2.9802322e-08,0.00012987852,0.00016516447,0.93161416,3.0875206e-05,0.0045185387
0.8768282,0.0,3.8146973e-05,7.867813e-06,1.4901161e-06,0.0004169643,0.00093737245,0.0025236309,0.01332292,0.0051894486
0.8193538,1.1920929e-07,0.0033833086,4.4465065e-05,8.940697e-07,0.0025002062,0.004808694,0.00035083294,0.00036028028,0.0019590855
0.9873742,0.0,2.3543835e-06,1.5199184e-06,1.5199184e-06,0.0012381673,0.0010866225,6.5267086e-06,0.0009583831,0.0035617352
5.9604645e-08,0.0,0.0,0.0,0.0,0.0,5.9604645e-07,0.0,0.00016057491,0.9999534
0.024090499,1.4901161e-07,8.583069e-06,0.00012776256,1.847744e-06,0.0001193881,0.09428239,0.023279876,0.05292952,0.002887994
0.0006876886,8.940697e-08,6.854534e-07,3.3050776e-05,3.2186508e-06,0.000133425,0.0023474395,6.854534e-07,0.99901116,3.8802624e-05
2.682209e-07,6.109476e-06,0.0020895004,0.99954,0.021306306,0.00022882223,0.011569768,1.6391277e-06,0.0051060915,0.0017732084
0.004745394,0.0,0.0002657771,6.854534e-07,0.00058463216,0.00082316995,0.0013390481,0.00056377053,0.8451867,0.00981003
6.2584877e-07,0.0014066696,0.00025600195,0.9998913,0.0002912879,0.0041681826,0.015815198,2.0563602e-06,0.09392378,1.2099743e-05
9.158254e-05,0.0,4.7385693e-06,4.7683716e-07,1.0341406e-05,5.2899122e-05,0.0016580522,2.682209e-07,0.9998283,1.1831522e-05
0.9945414,0.0,2.0861626e-07,0.0,0.0,0.00065764785,0.00058606267,7.4505806e-07,0.004186541,0.0002489686
0.19077447,2.0861626e-07,0.00051805377,1.0102987e-05,4.172325e-07,0.0054869354,0.17442045,1.463294e-05,0.00010240078,5.6684017e-05
0.9897653,0.0,1.1324883e-06,2.0861626e-07,1.4901161e-07,0.0010255873,0.0011193454,4.720688e-05,7.1942806e-05,0.004686773
0.0,0.0002628863,0.0009354651,0.99923635,0.96813536,0.995993,0.39659166,2.3841858e-06,0.014801234,2.9802322e-08
0.07063961,5.9604645e-08,0.0020162165,5.9604645e-08,2.1457672e-06,0.0002412796,0.00015619397,0.0028406978,0.0001346767,0.711748
5.930662e-06,0.0,5.9604645e-07,0.9999988,1.1920929e-07,0.00013032556,0.00015157461,1.7881393e-07,1.1205673e-05,2.3841858e-07
0.011297166,2.7656555e-05,2.3841858e-07,8.940697e-08,0.0,0.0012453198,0.84966296,1.4662743e-05,0.00010582805,0.00024691224
0.035187036,0.0,7.987022e-06,0.0,0.0,3.3557415e-05,0.00034946203,0.989151,4.5388937e-05,0.00045222044
0.000112235546,8.6426735e-07,0.00013056397,0.999982,8.356571e-05,0.0036993623,0.009352714,2.3841858e-07,0.0218063,4.2915344e-06
9.715557e-06,0.99339354,6.80089e-05,0.00013956428,4.172325e-07,0.0074456036,0.003994882,1.1920929e-07,0.6659872,0.00039443374
1.4007092e-06,0.0,2.8192997e-05,3.5762787e-07,0.0,2.9802322e-06,5.3942204e-06,4.3809414e-05,3.1352043e-05,0.99999833
6.201863e-05,2.8014183e-06,0.0005580783,4.23193e-06,3.2782555e-07,0.00010243058,0.0024985075,0.00010544062,0.014470696,0.9961906
0.77892244,0.0,1.2218952e-06,1.1026859e-06,2.9802322e-07,0.0002591014,0.00036808848,1.1324883e-06,0.53243023,2.104044e-05
2.0861626e-07,2.9802322e-07,9.050965e-05,2.8073788e-05,0.00022050738,1.0,0.0012749732,3.993511e-06,0.07329869,2.9057264e-05
1.1920929e-07,1.1920929e-06,0.00010564923,0.9999783,0.9941894,0.00051158667,0.003596574,8.6426735e-07,0.0029770434,2.3841858e-07
0.0021912158,0.0,5.9604645e-08,6.2584877e-07,0.0,2.771616e-06,3.477931e-05,0.9988469,2.6911497e-05,3.027916e-05
0.0003655851,8.940697e-08,2.503395e-06,1.4901161e-07,0.0,0.000256598,0.0025758445,5.364418e-07,0.9994019,4.8190355e-05
0.98994756,0.0,7.4505806e-07,5.364418e-07,5.9604645e-08,0.00032794476,0.00083759427,2.4139881e-05,8.8602304e-05,0.00037410855
0.025709271,0.0,5.066395e-07,0.00021979213,7.4505806e-06,2.4974346e-05,1.3560057e-05,0.032625854,0.00048935413,0.018465549
2.9861927e-05,0.0,0.99997926,0.000626117,3.963709e-06,0.00031250715,0.0011667907,2.3245811e-06,0.0008957386,1.0043383e-05
0.00012645125,0.0,1.6391277e-06,2.9802322e-07,2.682209e-07,4.1633844e-05,0.0012633204,8.6426735e-07,0.99989516,1.49309635e-05
1.3768673e-05,1.5228987e-05,3.963709e-06,1.591444e-05,1.5199184e-06,0.05099681,0.99239206,5.9604645e-07,0.03725654,0.0019542575
0.0057856143,0.0,1.7881393e-06,4.7683716e-07,0.0,0.0002489686,0.00081172585,6.4969063e-06,0.9719422,0.006839514
2.9802322e-08,7.5012445e-05,0.0015602112,0.00019004941,6.03199e-05,1.0,0.0034701526,0.00019285083,0.0038778782,2.041459e-05
0.8803246,0.0,1.2218952e-06,5.662441e-07,1.7881393e-07,0.000112086535,0.0002373159,0.012083352,0.016793996,0.0008274317
0.9543141,1.1920929e-07,4.1157007e-05,1.847744e-06,2.0861626e-07,0.00073057413,0.0031048656,0.00024837255,0.0011396408,0.0025075674
0.0013911128,3.5464764e-06,6.070733e-05,1.66893e-05,3.0338764e-05,9.214878e-05,0.002022177,1.7881393e-07,0.99651045,0.00045251846
0.00013333559,4.3213367e-06,2.682209e-07,2.682209e-07,0.0,0.0009125769,0.9993359,0.0,2.7686357e-05,0.00010097027
0.9962704,0.0,2.413988e-06,0.0,0.0,0.00027266145,0.00018432736,1.4007092e-06,0.0003336668,0.00073850155
0.00016307831,8.940697e-08,3.874302e-06,0.9999672,3.5762787e-07,0.0013614297,0.0011258721,2.0861626e-07,0.00092342496,3.33786e-06
3.08156e-05,0.0,5.066395e-07,1.5556812e-05,0.0,1.3738871e-05,3.0577183e-05,0.99959743,1.4424324e-05,0.00011795759
0.0007265806,0.0,5.4240227e-06,5.066395e-07,2.682209e-07,0.00023913383,0.0011574924,1.4901161e-06,0.9993812,7.149577e-05
0.022466272,1.335144e-05,0.00019600987,5.9604645e-08,4.172325e-07,0.0008046031,0.0014071167,9.23872e-07,0.90414655,0.028256416
2.771616e-06,0.0,5.9604645e-08,7.122755e-06,0.0,1.79708e-05,0.00015613437,0.9999611,0.0007785857,5.349517e-05
3.296137e-05,8.493662e-06,1.2040138e-05,6.2584877e-07,1.1026859e-06,0.0017316341,0.9893109,4.130602e-05,0.0003670454,0.002849102
0.019247174,0.0,0.0002552569,2.413988e-06,5.9604645e-08,0.00043565035,0.0022548437,1.22487545e-05,0.9759278,0.0016555488
1.013279e-06,0.0,0.0,7.4505806e-07,0.0,2.9802322e-08,4.261732e-05,0.0,5.662441e-07,0.9999913
1.385808e-05,0.00024977326,0.007267326,0.00012814999,5.9604645e-07,0.00032293797,0.009922236,2.6524067e-06,0.9835739,0.0030302405
0.01367861,0.0,7.5399876e-06,5.6505203e-05,1.7881393e-07,0.00018829107,0.0038686693,0.00014841557,0.99098206,0.00022342801
1.3113022e-06,2.4110079e-05,0.00024035573,0.000266999,0.00017747283,0.99999976,0.0021056235,5.915761e-05,0.006091833,4.7177076e-05
0.9987945,0.0,0.0,8.940697e-08,0.0,0.00056040287,0.00034475327,1.4901161e-07,4.002452e-05,0.00047418475
0.9899134,0.0,8.940697e-08,2.413988e-06,2.9802322e-08,0.00064620376,0.0006452799,5.00679e-06,0.0014106333,0.0003671646
0.9405724,0.0,2.8312206e-06,4.7683716e-07,5.9604645e-08,0.00016105175,0.0003247857,0.00017368793,0.001296699,0.025176793
0.9803529,0.0,0.0003350377,1.3411045e-06,1.1920929e-07,0.0012378097,0.00084906816,2.0861626e-05,5.492568e-05,0.00018060207
4.5329332e-05,0.0,1.1920929e-07,1.335144e-05,8.940697e-08,5.2839518e-05,0.0006849766,1.7881393e-07,0.9997345,2.3633242e-05
0.9921591,5.9604645e-08,1.1622906e-06,4.7683716e-07,2.0861626e-07,0.00060752034,0.00072035193,1.758337e-06,0.000166893,0.0041279197
0.00017514825,1.54078e-05,0.0003952086,0.00055989623,1.3798475e-05,0.99999714,0.003493756,5.096197e-06,0.005968958,6.303191e-05
0.38698,1.4901161e-07,3.6358833e-06,6.7561865e-05,5.9604645e-08,0.0024636686,0.0008774698,2.0861626e-07,0.8701587,0.00019839406
0.08252671,0.0,1.3113022e-06,8.821487e-06,8.940697e-08,0.00034469366,0.0003424883,0.883698,8.8483095e-05,0.003388226
0.0011155605,0.99715054,0.00049868226,0.00011885166,9.775162e-06,0.0023157,0.00015452504,6.020069e-06,0.009473473,0.0009780824
7.987022e-06,0.9993646,0.0007003248,0.011086851,0.00015848875,0.005419135,0.00029197335,0.00025379658,0.09481624,0.00088855624
0.99764663,0.0,5.9604645e-08,0.0,0.0,0.00052410364,0.00035572052,6.67572e-06,1.0430813e-05,0.0003413856
6.5892935e-05,4.2915344e-05,0.0005890429,0.0022170246,0.00013670325,0.9999943,0.0017471611,1.2814999e-06,0.0771327,3.683567e-05
0.99403775,0.0,9.23872e-07,0.0,0.0,0.00075134635,0.00031793118,2.9802322e-07,0.00014853477,0.0027619898
3.1292439e-06,2.9802322e-08,8.890033e-05,0.9999335,0.7942889,0.0005393326,0.0009447634,1.7881393e-07,0.379237,1.1920929e-07
0.00094127655,0.0,2.4676323e-05,3.4421682e-05,2.7537346e-05,5.555153e-05,0.0020533204,4.529953e-06,0.99906653,0.0005918145
0.5279876,0.0,2.0861626e-07,1.1920929e-07,1.4901161e-07,2.82228e-05,0.00015464425,0.26055014,0.00037890673,0.009025127
0.014654934,0.0,3.8444996e-06,2.0295382e-05,2.0861626e-07,0.00036272407,0.0004810989,8.5532665e-06,0.9718385,0.0027284324
0.99577224,0.0,8.34465e-07,6.2584877e-07,0.0,0.0031128228,0.0004735291,1.3709068e-06,2.2232533e-05,0.0015561581
0.0015123785,0.0,0.0003914535,0.00018966198,3.4719706e-05,0.00015929341,0.00081536174,5.4329634e-05,0.9951991,0.00065252185
6.425381e-05,2.0861626e-07,1.9967556e-06,0.9999497,5.364418e-07,0.0004388988,0.0029879212,0.0,0.10430929,8.362532e-05
0.98298585,0.0,1.7285347e-06,2.0861626e-07,4.7683716e-07,0.00051000714,0.00044861436,6.854534e-07,0.00030985475,0.02726221
0.0065246522,8.940697e-08,1.4007092e-06,5.841255e-06,1.1920929e-06,0.00016319752,0.0006490648,1.4305115e-06,0.99478865,0.00079864264
1.1920929e-07,2.95043e-06,0.00014913082,0.000102579594,4.172325e-07,1.0,0.0020841062,5.6028366e-06,0.006938517,2.0563602e-06
0.7135886,0.0,8.225441e-06,2.1547079e-05,7.4505806e-07,0.0015302896,0.0010705292,2.95043e-06,0.5860104,0.000121593475
0.00038081408,2.3841858e-07,7.212162e-06,1.3619661e-05,2.0861626e-07,0.00045907497,0.0034532547,4.172325e-07,0.9973377,0.003186345
0.000109255314,0.0,1.7374754e-05,0.9998858,4.7683716e-07,0.0007068813,0.00081041455,1.8179417e-06,0.0004963279,8.940697e-07
0.8801187,0.0,2.2649765e-06,3.4570694e-06,1.2308359e-05,0.0005132258,0.00020438433,0.016805083,0.0066339374,0.0011865795
3.1590462e-06,2.7745962e-05,0.00029569864,0.99997234,0.00026378036,0.007844299,0.08712238,1.3709068e-06,0.00018414855,3.5762787e-06
1.2516975e-06,2.9802322e-08,3.516674e-06,0.99999785,0.0019625127,0.00048983097,0.0014542639,5.9604645e-08,0.05940765,2.0861626e-07
1.0728836e-06,1.4901161e-07,7.1525574e-07,1.758337e-06,2.9802322e-08,0.00054368377,0.79693073,0.93287945,0.00042948127,3.772974e-05
0.00010418892,1.1920929e-07,1.8179417e-06,1.3411045e-06,2.0861626e-07,8.946657e-05,0.0013577342,6.943941e-06,0.033297747,0.9696106
5.632639e-06,4.4703484e-07,0.0001642108,0.99996674,0.005120516,0.0016402304,0.0035288632,1.4901161e-07,0.0073176622,2.6524067e-06
0.06030193,1.6391277e-06,1.0997057e-05,0.0014614463,1.168251e-05,0.0003219247,0.00070235133,2.3543835e-06,0.95022106,0.004663855
5.9604645e-08,0.998861,9.953976e-06,0.43265122,2.592802e-06,0.004882574,0.00029236078,0.0,0.9927922,7.4505806e-06
6.443262e-05,2.0861626e-07,1.1533499e-05,0.99998236,9.23872e-06,0.00081831217,0.00056421757,1.1920929e-07,0.00093099475,3.4570694e-06
0.011982739,8.940697e-08,1.5795231e-06,3.5464764e-06,0.0,3.3080578e-05,0.00038683414,5.9604645e-07,0.11453843,0.980595
1.1920929e-07,0.0,1.6987324e-06,0.9999963,0.00015220046,6.955862e-05,0.0012116134,1.1026859e-06,3.015995e-05,3.260374e-05
0.00045746565,4.172325e-06,8.940697e-08,2.3841858e-07,0.0,0.009891152,0.8473749,0.0,0.6487618,0.0073587
0.00036790967,2.9802322e-08,0.99949384,0.00069093704,0.00019147992,0.00035870075,0.0029238462,1.0192394e-05,0.010724485,4.3958426e-05
0.93160725,0.0,1.6093254e-06,1.4901161e-07,8.34465e-07,0.00058716536,0.0004824102,0.0005209744,0.00031730533,0.029081583
0.90033555,7.1525574e-07,6.2286854e-06,1.2814999e-05,2.9802322e-08,0.0008150935,0.0012034774,1.4513731e-05,0.26666898,0.0009394288
0.000305295,2.682209e-07,0.0019144714,0.00012090802,7.2717667e-06,0.99989426,0.0004248917,0.00020214915,0.0008045137,5.2899122e-05
8.940697e-08,0.0,0.0,0.0,0.0,0.0,1.4007092e-06,0.0,7.337332e-05,0.9999801
0.99668026,0.0,5.364418e-07,5.9604645e-08,0.0,0.00052151084,0.0002552867,4.2021275e-06,0.00024420023,0.00028771162
0.00027117133,0.0,2.0861626e-06,2.9802322e-07,0.0,0.0002015531,0.00063711405,5.066395e-07,0.9996946,2.5242567e-05
0.952431,0.0,1.0281801e-05,9.417534e-06,2.4497509e-05,0.00026592612,0.0001604259,1.6391277e-06,0.0012460053,0.021316588
0.9607194,0.0,2.0861626e-07,1.5497208e-06,0.0,0.0006339848,0.00040966272,3.427267e-06,0.041496694,0.0005623102
0.00021618605,0.0002462268,2.4735928e-06,3.33786e-06,7.748604e-07,0.0030550659,0.9986075,3.874302e-07,0.006026298,0.0008135438
0.6956566,1.4901161e-07,0.3709847,7.1823597e-06,5.096197e-06,0.0016916692,0.0014744401,0.006750405,0.00033921003,0.0029129088
0.8853631,0.0,0.00015062094,1.1920929e-07,1.1473894e-05,0.00066021085,0.0003579259,0.02929777,0.00018692017,0.014475286
0.000107347965,2.9802322e-08,2.2172928e-05,3.5762787e-07,0.0001924932,0.00010409951,0.0043198764,0.00068730116,0.00013393164,0.9750392
1.385808e-05,0.98164433,0.00048983097,0.0018216968,5.465746e-05,0.0070451796,0.0048220754,8.940697e-08,0.19933406,0.020527542
0.99058247,5.9604645e-08,4.9471855e-06,7.1525574e-07,8.940697e-08,0.00096288323,0.0007901788,1.9282103e-05,8.380413e-05,0.010830671
2.4706125e-05,5.066395e-07,7.6293945e-06,0.9998882,0.010081798,0.0009844899,0.0054010153,0.0,0.17999798,1.847744e-06
0.16033989,2.9802322e-08,0.744375,0.0001603365,6.467104e-06,0.0015101731,0.0007071793,0.00045663118,0.024378657,0.0005173087
0.028891146,0.0,1.6093254e-06,8.6426735e-07,2.3841858e-07,0.00062808394,0.0006585419,4.8577785e-06,0.93369603,0.008468121
0.0,1.2546778e-05,0.95789015,0.9815433,9.953976e-06,0.0004104674,0.008528471,2.9802322e-08,0.9964416,2.9802322e-08
0.80634785,0.0,8.2969666e-05,5.4508448e-05,0.0,0.00059852004,0.0006851554,0.10189304,0.00067305565,0.00081822276
0.0011900663,1.4901161e-07,0.66977143,1.8835068e-05,2.1487474e-05,0.00019857287,0.004910767,3.129244e-05,0.9851402,0.00046506524
0.94850683,0.0,2.5331974e-06,4.61936e-06,2.8908253e-06,0.0063899755,0.00084489584,1.7881393e-06,0.0010952353,0.01005277
0.0,0.0002015233,0.0006172359,0.999834,6.4611435e-05,0.00028032064,0.020159215,9.119511e-06,0.9901564,2.682209e-07
1.3947487e-05,0.0,6.2584877e-07,0.9999945,1.7881393e-07,0.0003694892,0.0005695224,2.3841858e-07,5.1498413e-05,1.7881393e-07
0.0008813739,8.404255e-06,0.00013804436,1.9550323e-05,4.2021275e-06,0.00059083104,0.017597616,9.834766e-07,0.99809253,0.0002464354
5.9604645e-08,0.9665946,0.0018136501,0.99955297,0.05244288,0.30902696,0.011900336,1.4901161e-07,0.11957255,1.7881393e-07
0.9350821,0.0,3.1501055e-05,5.00679e-06,1.5586615e-05,0.0050283074,0.0006174743,0.0066539943,0.0004105866,0.021579206
4.887581e-06,0.9954239,0.0012948811,0.0018420517,2.771616e-06,0.008875251,0.0032611787,1.1920929e-07,0.8826778,0.0003297031
0.99810433,0.0,2.9802322e-08,6.854534e-07,0.0,0.0010150075,0.0002680719,2.9802322e-08,0.00011256337,0.00031104684
0.0003527403,0.0,5.4746866e-05,3.6358833e-06,5.00679e-06,3.8206577e-05,0.00044816732,8.821487e-06,0.9991914,5.1140785e-05
0.00018683076,1.6987324e-06,0.0002194047,1.1920929e-06,0.0,9.7602606e-05,0.00079506636,3.8444996e-06,0.9806078,0.028754264
3.5762787e-06,0.99297357,0.00025311112,0.64006245,0.000482589,0.0068088174,0.002578169,0.0,0.646988,0.0001989007
0.66602516,0.0,7.748604e-07,1.7285347e-06,5.9604645e-08,0.0006505251,0.0006361902,0.00010946393,0.32414055,0.0017216802
0.0,8.6426735e-06,0.00011590123,0.0049088597,6.4611435e-05,1.0,0.0023057163,1.41859055e-05,0.013191372,2.0861626e-07
0.9423518,0.0,1.8775463e-06,2.0861626e-07,5.066395e-07,0.00022435188,0.00025001168,0.0012189448,7.593632e-05,0.024571389
1.1920929e-06,0.0,4.172325e-07,1.5169382e-05,8.940697e-08,2.1457672e-06,0.00031894445,0.99457204,0.962602,3.0010939e-05
0.00011757016,0.9925116,0.0024136305,0.00614357,1.463294e-05,0.0043203533,0.0020673573,2.413988e-06,0.89565754,0.0029583573
0.9392059,5.9604645e-08,1.6093254e-05,5.662441e-07,0.0,0.00082948804,0.0005547106,3.5464764e-06,4.1216612e-05,0.0290173
4.7564507e-05,0.00012269616,0.00096550584,0.00068742037,1.475215e-05,0.9990128,0.0856657,1.3440847e-05,0.38778016,0.0016000867
3.9607286e-05,0.0,8.404255e-06,1.2069941e-05,2.3841858e-07,4.130602e-05,0.00092858076,1.937151e-06,0.99993265,4.4047832e-05
3.7431717e-05,0.9327719,0.0018456876,0.48691043,5.990267e-06,0.012301803,0.0013022721,1.31726265e-05,0.60632026,0.01363647
7.0631504e-06,0.00013530254,0.0008278489,0.10732782,0.021187365,0.9996215,0.021521032,0.0002682209,0.0089482665,0.00042435527
1.2069941e-05,2.682209e-07,8.225441e-06,6.854534e-07,1.5497208e-06,0.00024351478,0.00048220158,0.06415728,0.017641187,0.89757967
0.012122393,6.9737434e-06,0.00016248226,0.8694503,5.5134296e-06,0.0011511147,0.0013413429,6.645918e-06,0.65025645,0.0005542338
6.699562e-05,0.0,1.6391277e-06,3.5762787e-07,0.0,0.00014579296,0.0029447377,1.8179417e-06,0.99988174,1.8447638e-05
2.965331e-05,0.0,8.225441e-06,3.1888485e-06,1.1920929e-07,1.3053417e-05,0.0007249415,1.5676022e-05,0.9998446,5.6535006e-05
3.874302e-06,5.9604645e-08,1.013279e-06,0.99999434,2.2649765e-06,0.0018704236,0.0051345825,2.682209e-07,0.020373374,5.9604645e-07
2.43783e-05,9.23872e-07,0.0010101795,7.7188015e-06,1.0728836e-05,0.99986553,0.003281653,1.630187e-05,0.11594707,0.0007633865
0.00013369322,1.66893e-06,0.9969903,2.604723e-05,2.759695e-05,0.0007608235,0.0013020039,2.3841858e-06,0.3810271,2.4527311e-05
0.6555455,5.9604645e-08,3.4183264e-05,1.1026859e-06,5.3048134e-06,0.00063577294,0.00086030364,0.001106143,0.01070267,0.13777176
5.2064657e-05,4.0769577e-05,1.2218952e-06,7.748604e-07,1.3947487e-05,0.007775873,0.9703887,1.0371208e-05,0.00041747093,0.0008096099
0.9976368,0.0,1.7881393e-07,1.4901161e-07,0.0,0.0008383095,0.0003876388,2.3245811e-06,0.00018751621,0.00011485815
1.6629696e-05,0.0,3.5762787e-07,0.9999884,0.0,0.0015648007,0.0021686256,5.9604645e-08,0.0017638803,1.7881393e-07
0.0006069243,8.940697e-08,7.122755e-06,1.7881393e-07,2.9802322e-08,0.0001949966,0.880793,8.6426735e-07,0.0009663701,0.27209955
2.7805567e-05,0.0,4.7683716e-07,0.000101178885,0.0,0.00018566847,0.00095006824,9.23872e-07,0.9999385,2.2023916e-05
0.021569759,4.7683716e-07,1.7881393e-06,3.516674e-06,2.9802322e-08,0.0009647608,0.00084522367,1.1920929e-07,0.9578272,0.037977308
2.9802322e-07,0.7638585,0.012951553,0.9637221,0.00013712049,0.0029422939,0.028227597,1.4901161e-07,0.9899262,9.268522e-06
0.9941032,0.0,4.7683716e-07,8.940697e-08,4.172325e-07,0.000238657,0.00026267767,4.142523e-06,8.717179e-05,0.0008495748
0.9921072,0.0,3.516674e-06,1.1622906e-06,0.0,0.0011738241,0.0015645921,1.4305115e-06,0.0020763576,8.627772e-05
0.92182076,0.0,9.536743e-07,7.1525574e-07,0.0,0.002403915,0.0014677346,6.3180923e-06,0.0055531263,0.013991982
0.0009265542,0.0,1.2516975e-06,2.9802322e-07,7.495284e-05,3.1143427e-05,0.00485453,7.4505806e-06,0.9966997,0.00028151274
0.22584954,0.0,2.682209e-06,1.4901161e-06,1.2516975e-06,0.00027126074,0.0008865297,8.285046e-06,0.8835707,0.00033029914
0.00013312697,0.0,1.6987324e-06,0.00011718273,1.7881393e-07,9.295344e-05,0.00089374185,0.9989799,0.001103431,6.9350004e-05
0.9961364,0.0,4.172325e-07,1.4901161e-07,0.0,0.0014474988,0.0005508065,6.854534e-07,0.00029188395,0.0006059408
1.7881393e-07,0.000151366,0.9380604,0.20166668,0.00086534023,0.99966455,0.01830995,4.413724e-05,0.40178138,8.493662e-06
0.06863466,0.0,3.5762787e-07,1.2665987e-05,8.6426735e-07,0.00032034516,0.00028055906,7.006526e-05,0.93536323,0.00018757582
0.30225405,2.9802322e-08,0.024975061,3.0368567e-05,5.9336424e-05,0.0007776916,0.0026382804,0.00022226572,0.042737633,0.0050784647
0.003447622,0.0,6.946921e-05,1.1086464e-05,0.00070884824,9.572506e-05,0.0006710589,3.5464764e-06,0.98401415,0.0022206008
9.75132e-05,2.9802322e-08,3.33786e-06,0.00011405349,1.1920929e-07,0.00018063188,0.0011003315,2.771616e-06,0.99972785,0.00027692318
0.0043302476,2.3841858e-07,3.3676624e-06,6.556511e-06,2.026558e-06,0.00962621,0.8461648,2.3841858e-07,4.0620565e-05,0.0017267764
0.004313916,0.0,5.662441e-07,1.1920929e-07,0.0,0.00044462085,0.00062450767,5.066395e-07,0.9971794,0.0012205839
0.98436725,0.0,1.2814999e-06,1.001358e-05,1.7881393e-07,0.0005980432,0.0001514852,1.8775463e-06,9.3996525e-05,0.041591525
0.991181,0.0,5.364418e-07,3.3080578e-06,0.0,0.0010869503,0.0006790161,8.314848e-06,6.571412e-05,0.0023545623
0.0038169324,0.0,2.0861626e-07,3.4570694e-06,1.5497208e-06,0.00014606118,0.00054982305,0.99593073,0.0017240644,0.0013248026
7.688999e-06,4.1127205e-06,2.6136637e-05,0.00032237172,7.6293945e-06,0.9999981,0.0011416376,1.6391277e-06,9.730458e-05,5.2303076e-05
0.0033409297,8.940697e-08,4.053116e-05,6.854534e-06,5.662441e-07,0.0006839931,0.0038665533,0.0001706779,0.990103,0.0006376505
0.00036510825,5.9604645e-08,0.00013315678,2.208352e-05,6.80089e-05,6.604195e-05,0.00060379505,1.9967556e-06,0.993711,0.006342113
1.013279e-06,1.335144e-05,0.99185646,0.00017020106,0.000111460686,0.0014384985,0.029473424,6.854534e-07,0.9919786,3.1292439e-06
2.9802322e-07,0.0001604855,1.0848045e-05,0.9998997,5.0365925e-06,0.0050472915,0.12448016,4.7683716e-07,0.2858952,5.275011e-05
8.940697e-08,0.0,0.0,0.0,0.0,0.0,1.7285347e-06,0.0,2.3543835e-06,0.9999994
0.047097653,2.9802322e-08,0.0019834936,5.3793192e-05,0.0015232563,0.00039857626,0.0015925169,2.232194e-05,0.5685373,0.00858894
0.02655086,2.0861626e-07,0.00017920136,0.00019708276,1.859665e-05,0.0019542873,0.005438745,9.381771e-05,0.066970885,0.19926143
0.98078215,0.0,1.7851591e-05,1.4901161e-07,0.0,0.0003465712,0.0010570288,0.0011792183,8.288026e-05,0.0073927343
0.9493103,0.0,1.0728836e-06,8.34465e-07,2.682209e-07,0.00025987625,0.00057950616,0.00043445826,0.0018623173,0.007407278
0.0005750656,0.885406,0.008549005,0.000405401,2.2947788e-05,0.025197983,0.065754026,0.00011232495,0.17273974,0.025831312
0.00011822581,5.9604645e-08,0.00013795495,2.5629997e-05,1.847744e-06,0.00010639429,0.0024503767,3.2901764e-05,0.14598072,0.93478966
3.5762787e-07,0.0,0.99972,0.00066009164,0.00322482,4.1425228e-05,0.00060236454,8.6426735e-07,0.98249865,1.9669533e-06
0.9536557,1.4901161e-07,0.026822656,8.940697e-08,2.0861626e-07,0.00011250377,0.00020065904,0.00013247132,0.0011146665,9.6827745e-05
3.0398369e-06,0.0053878725,0.019226372,0.9975513,8.651614e-05,0.000762105,0.0032625496,8.940697e-08,0.868921,0.00014463067
1.3887882e-05,0.99712354,0.0005373359,0.0006033778,1.013279e-06,0.0069845617,0.003038466,2.0861626e-07,0.16514075,0.0019785166
0.00028204918,0.0,4.7683716e-07,0.00013753772,1.1026859e-06,0.0014450848,0.006513804,6.7949295e-06,0.9991995,0.00015032291
6.854534e-07,1.5795231e-06,0.9995654,0.0005720854,9.775162e-06,0.101789206,0.001005441,1.9073486e-06,0.30212113,7.748604e-07
0.54189014,0.0,0.0,8.940697e-08,0.0,0.00040140748,0.00014841557,0.0028027892,0.14362887,0.00035223365
0.27626723,0.0,8.5800886e-05,9.387732e-06,9.23872e-07,4.4226646e-05,0.00040873885,0.2111767,0.010986179,0.003871262
0.9428161,0.0,5.9604645e-08,1.4901161e-07,0.0,7.0929527e-06,0.00012156367,0.0009587407,5.90086e-06,2.670288e-05
0.0,2.9802322e-08,6.842613e-05,1.0073185e-05,2.0563602e-06,0.9999999,0.0010943711,3.3080578e-06,0.9712028,1.0639429e-05
0.4530879,0.0,1.4603138e-06,2.425909e-05,2.0563602e-06,0.00036212802,0.0006122291,4.23193e-06,0.7237896,0.00041395426
0.0016610026,0.0,4.529953e-06,5.9604645e-07,0.0,7.289648e-05,0.00022548437,0.0002540052,0.9208119,0.077646285
0.15762767,0.0,0.00033956766,3.9339066e-06,7.5399876e-06,0.001721859,0.00267303,0.000104248524,0.86169446,0.006223023
0.0,1.013279e-06,0.000104516745,1.6331673e-05,1.9133091e-05,1.0,0.001435101,3.1292439e-06,0.7624918,5.930662e-06
5.066395e-07,0.0030261278,0.007957518,0.020196259,0.00011271238,0.87482584,0.21610615,3.3915043e-05,0.0008279085,0.0012932718
0.30782747,3.2186508e-06,0.0001334846,1.4483929e-05,7.4505806e-07,0.00023853779,0.00034040213,0.0022721887,0.0003296137,0.7690309
3.105402e-05,0.0,1.335144e-05,2.1517277e-05,3.0100346e-06,0.00013247132,0.0001885891,0.9995841,0.00037425756,0.0018795133
8.761883e-06,0.0,0.0001463294,0.0011305809,0.99851656,0.00012245774,0.0047067404,0.00011694431,0.27767065,0.0008241534
3.4570694e-06,0.013459951,0.010305196,8.255243e-05,0.00077465177,0.92571723,0.4033421,4.413724e-05,0.06363514,0.02821663
0.987189,0.0,5.662441e-07,4.7683716e-06,1.4007092e-06,0.0007529855,0.0005886555,7.748604e-07,0.0042625666,0.0012422204
1.4424324e-05,2.9802322e-08,6.556511e-07,0.99997544,2.8908253e-06,0.0013761222,0.0006029308,0.0,0.011341572,6.2584877e-07
0.0005956292,5.9604645e-08,0.0011917651,4.9501657e-05,0.00028797984,0.00024315715,0.0040117204,8.85129e-06,0.9811855,0.0025711358
0.017458588,5.066395e-07,0.96752703,6.8068504e-05,0.006496012,0.0023707151,0.0034178793,0.0041439533,0.30398554,0.0005283952
0.00014334917,1.847744e-06,8.34465e-07,1.1920929e-07,1.7881393e-07,0.00072827935,0.986776,7.212162e-06,0.0026156008,0.025264502
0.545578,6.7055225e-06,1.0162592e-05,2.1606684e-05,9.23872e-07,0.003431052,0.0044866204,5.364418e-07,0.36824757,0.010188222
3.1292439e-06,0.00024843216,0.010235935,0.0011950433,0.00045871735,0.9207362,0.49468428,0.0011048615,0.04055077,0.011867732
4.3094158e-05,3.5464764e-06,2.0563602e-06,1.9192696e-05,1.30832195e-05,0.9978813,0.54372865,3.5762787e-06,0.005860865,0.00018152595
0.9937676,0.0,7.748604e-07,4.798174e-06,2.0861626e-07,0.002191931,0.00031507015,1.1056662e-05,0.00018924475,0.0030411482
0.018100858,1.9073486e-06,0.008107632,9.596348e-06,4.172325e-07,0.00022646785,0.0014458299,5.143881e-05,0.007569641,0.94945395
2.1994114e-05,1.8179417e-05,0.00032687187,0.0005912781,0.0008712709,0.99966276,0.03392458,2.336502e-05,0.3146981,0.002745092
0.9852699,0.0,5.9604645e-07,0.0,1.7881393e-07,0.00026860833,0.0004298687,0.00037631392,0.00028955936,0.00020968914
2.0861626e-07,5.9604645e-08,0.99874175,0.99945855,5.8323145e-05,0.00033810735,0.0017904043,0.0,0.06063938,8.940697e-08
0.51715606,5.9604645e-08,2.7120113e-06,2.5331974e-06,0.0,0.0014688075,0.00057172775,1.2457371e-05,0.74264073,0.0016857386
0.09193587,0.0,1.4603138e-06,5.543232e-06,1.7881393e-07,0.00014680624,0.0003284216,0.9588565,8.881092e-05,0.0021770597
0.0006875694,0.0,1.2814999e-06,5.64456e-05,5.9604645e-08,1.5854836e-05,0.00010970235,0.80259025,0.0013407469,0.14986685
0.36730188,2.9802322e-08,1.6897917e-05,3.0368567e-05,1.758337e-06,0.00223732,0.005105108,8.812547e-05,0.55749774,0.0073157847
0.97272336,2.1100044e-05,3.0517578e-05,8.34465e-07,1.1920929e-07,0.0011852086,0.0017290115,1.0460615e-05,0.00033962727,0.039075166
0.07889587,8.940697e-08,0.00022292137,0.00021013618,4.914403e-05,0.003272593,0.0011980832,6.6161156e-06,0.010322183,0.8689356
0.00032043457,0.0,7.325411e-05,0.0008036792,0.99275196,0.00016057491,0.0015521646,1.6182661e-05,0.032806933,0.011773586
0.9960002,0.0,1.4007092e-06,5.9604645e-08,1.7881393e-07,0.00058180094,0.00038653612,6.8843365e-06,1.168251e-05,0.0006300211
7.2300434e-05,0.012085646,0.0040402412,0.0010038018,0.00014987588,0.0019051135,0.3815169,3.2186508e-06,0.89006734,0.004090488
0.9563209,2.9802322e-08,1.013279e-06,2.1457672e-06,2.3841858e-07,0.00031846762,0.000420779,3.5762787e-07,0.18372536,8.606911e-05
0.00023901463,0.0,1.1920929e-07,2.0861626e-07,2.3841858e-07,0.00011065602,0.01576668,0.0,0.98341036,0.020157814
8.940697e-08,0.9908387,0.0004969537,0.9999076,0.0009099245,0.011521369,0.019845247,8.940697e-08,0.90196824,9.834766e-07
0.99490166,0.0,2.682209e-07,0.0,0.0,0.00096032023,0.00015473366,5.38826e-05,9.813905e-05,0.0005506873
0.53854686,5.9604645e-08,0.0001244247,2.9802322e-08,5.9604645e-08,0.00013005733,0.0002976656,0.0002604127,1.6093254e-05,0.58771956
0.9752146,0.0,2.0861626e-07,4.172325e-07,0.0,0.00017821789,0.00023722649,0.0004082322,0.001452595,5.5104494e-05
0.91507435,0.0,3.33786e-06,5.7816505e-06,1.5199184e-06,0.0025239885,0.0010298193,5.763769e-05,0.0058507323,0.056788176
0.19528124,5.9604645e-08,1.4901161e-07,1.2516975e-06,2.3841858e-07,0.00091567636,0.006499976,5.9604645e-08,0.15405342,0.15627506
0.97950196,2.9802322e-08,0.00019878149,2.3245811e-06,5.9604645e-08,0.003971815,0.0058387816,9.727478e-05,0.0006092489,0.0031495094
0.998176,0.0,5.9604645e-08,1.1920929e-07,0.0,0.0010798275,0.00017341971,8.940697e-07,0.00017613173,0.0004056394
1.013279e-06,0.0,0.0,7.4505806e-07,0.0,2.9802322e-08,4.261732e-05,0.0,5.662441e-07,0.9999913
5.9604645e-08,0.0,0.0,0.0,0.0,0.0,5.9604645e-07,0.0,0.00016057491,0.9999534
6.854534e-07,0.99686337,5.0216913e-05,0.8947001,5.64754e-05,0.06438911,0.00399518,8.940697e-08,0.013420224,2.5570393e-05
1.7791986e-05,0.99845076,0.0037714243,0.0001232326,1.8566847e-05,0.0041633546,0.0004043579,2.2351742e-06,0.032393605,0.00025874376
4.7385693e-06,5.9604645e-08,0.002079606,0.00020766258,0.9960188,3.990531e-05,0.0006636679,0.00013968349,0.8261136,8.267164e-05
0.9877062,0.0,8.940697e-08,2.3841858e-07,1.1920929e-07,0.00052273273,0.00039580464,7.742643e-05,0.0001552403,0.00031349063
5.0514936e-05,5.066395e-07,1.9431114e-05,0.00019186735,7.748604e-07,0.0019295514,0.06327328,5.2154064e-06,0.9975133,0.00034111738
0.9887539,0.0,2.554059e-05,3.0696392e-05,2.9802322e-08,0.0013724566,0.0021998286,2.3245811e-06,0.000115305185,0.00036394596
3.427267e-05,1.4901161e-07,0.001257956,0.9999553,0.0046520233,0.001686573,0.0011621416,1.1622906e-06,8.9257956e-05,1.5318394e-05
1.5795231e-06,0.0,0.99572194,0.001288265,0.44723272,0.00010481477,0.00074344873,3.695488e-06,0.9845929,4.4703484e-06
3.6269426e-05,4.7683716e-07,0.00048032403,8.493662e-06,1.9669533e-06,0.00033131242,0.0012764037,2.503395e-06,0.008417577,0.9949386
5.9604645e-08,0.0,0.0,0.0,0.0,0.0,5.9604645e-07,0.0,0.00016057491,0.9999534
8.636713e-05,0.0,2.7120113e-06,0.9999671,1.7881393e-07,0.00029543042,0.0023707747,5.662441e-07,0.00011628866,1.3709068e-06
0.9492023,0.0,1.0728836e-06,7.748604e-07,9.834766e-07,0.005888611,0.0030367672,0.0010015965,0.000121206045,0.0030940473
0.051400095,0.0,1.5318394e-05,1.5497208e-06,4.172325e-07,0.00075033307,0.0008300543,6.5863132e-06,0.97839534,0.00030261278
0.99611837,0.0,9.834766e-07,0.0,5.9604645e-08,0.00030884147,0.0005290508,5.751848e-06,2.8043985e-05,0.00046110153
0.96135163,0.0,5.3435564e-05,2.1457672e-06,3.5762787e-07,0.004108429,0.00077214837,7.867813e-06,0.00012353063,0.0081011355
0.004180908,3.5762787e-06,1.8179417e-06,1.9073486e-06,1.6987324e-06,0.0030545592,0.99277043,1.4692545e-05,0.018202484,0.00017940998
0.017672628,8.34465e-07,4.759431e-05,0.011659443,0.0065666437,0.00073745847,0.0022350848,1.5616417e-05,0.67496514,0.007700026
0.0029976666,0.0,6.2584877e-07,1.4662743e-05,2.4735928e-06,0.00017946959,0.0040831864,2.682209e-07,0.99873173,9.745359e-06
0.9679004,0.0,7.1525574e-07,2.9802322e-07,0.0,0.0004143119,0.00027155876,0.008017272,0.0003068447,0.0011943579
1.4901161e-07,0.0006288886,0.48331982,0.9998617,0.0022684336,0.013011217,0.005352944,8.940697e-08,0.5365738,1.7881393e-07
0.0,3.3468008e-05,4.902482e-05,0.99994516,1.5556812e-05,0.00064226985,0.29083607,1.1920929e-07,0.99435973,1.7881393e-07
6.2584877e-07,6.2584877e-07,0.997794,0.9984761,1.4483929e-05,0.0010221004,0.0045509636,2.682209e-07,0.0040263236,2.4735928e-06
0.77976155,8.940697e-08,0.00020000339,9.23872e-07,1.5199184e-06,0.00018668175,0.00047528744,0.005587876,0.0672853,0.002366364
0.006692052,0.0,4.172325e-07,2.861023e-06,0.0,0.002617389,0.0016562641,2.8461218e-05,0.9912214,0.00040620565
0.0022966266,0.00017374754,2.2947788e-05,3.6418438e-05,5.662441e-07,0.0013543963,0.027135193,2.9802322e-07,0.9937072,0.0020872355
0.008377701,5.9604645e-08,6.4074993e-06,1.8924475e-05,3.874302e-07,0.00035884976,0.0018274188,3.427267e-06,0.9945201,0.00028389692
0.99387157,0.0,5.364418e-07,2.682209e-07,1.1920929e-07,0.000615716,0.0005874634,1.1980534e-05,0.00016897917,0.0009639263
5.9604645e-08,9.164214e-05,1.5586615e-05,0.9999818,1.1533499e-05,0.0018542707,0.027641386,0.0,0.9759178,1.758337e-06
0.0,3.85046e-05,0.96062875,3.0636787e-05,0.00016447902,0.00034731627,0.6930731,2.4437904e-06,0.99815285,1.9967556e-06
0.19549647,2.3841858e-07,8.940697e-07,2.503395e-06,0.0,0.0001322031,0.00057300925,1.4901161e-07,0.9230038,5.891919e-05
0.9953,0.0,6.556511e-07,2.0861626e-07,2.9802322e-08,0.0010211468,0.0006444752,6.854534e-07,5.811453e-05,0.0013196766
4.708767e-06,6.2584877e-07,2.7149916e-05,0.99999547,0.0010687709,0.00037908554,0.0045978725,1.1920929e-07,0.05378148,1.0281801e-05
8.761883e-06,1.001358e-05,0.0357486,0.9999227,0.0015485287,0.00045201182,0.010417521,1.1920929e-07,0.0014440119,1.04904175e-05
2.4527311e-05,0.997195,0.0002516508,3.6895275e-05,3.2782555e-07,0.010778457,0.0011448562,2.682209e-07,0.004857093,0.0005030632
0.002476871,5.9604645e-08,4.6789646e-06,1.66893e-06,2.5361776e-05,2.2262335e-05,0.0008623898,5.3942204e-06,0.9984168,8.46386e-06
4.5895576e-06,0.014075875,1.001358e-05,0.030379444,2.2798777e-05,0.0447537,0.8442773,4.7683716e-07,0.20348346,0.0133880675
0.0016221404,0.986851,6.362796e-05,6.943941e-06,6.854534e-07,0.0009420514,0.00043785572,0.0,0.0062385798,0.0005917549
0.99154747,0.0,5.066395e-07,4.4703484e-07,0.0,0.0010657609,0.0006811619,2.115965e-06,0.0018368065,0.00024482608
5.9604645e-08,0.0,0.0,0.0,0.0,0.0,5.9604645e-07,0.0,0.00016057491,0.9999534
0.0035937428,5.9604645e-08,1.4901161e-06,4.053116e-06,0.0,1.9848347e-05,0.0006016493,4.172325e-07,0.019019634,0.99228126
0.0003655553,1.1920929e-07,0.0001744926,4.1127205e-06,6.854534e-07,0.00052183867,0.0036907196,0.00020742416,0.9988566,0.00035828352
3.3080578e-06,0.0,8.222461e-05,7.3611736e-06,0.005615294,8.806586e-05,0.0009826124,8.106232e-06,0.0023362935,0.97173136
0.99874884,0.0,1.4901161e-07,8.940697e-08,0.0,0.0010969341,0.00044432282,6.198883e-06,1.6719103e-05,3.72231e-05
0.9976899,0.0,4.172325e-07,0.0,0.0,0.0009063184,0.0005646646,2.2053719e-06,1.4394522e-05,0.0002500713
0.0007022321,1.1920929e-07,3.874302e-06,3.33786e-06,0.0,0.00038263202,0.0011456013,2.0563602e-06,0.9977379,0.002269119
0.00029233098,0.4079358,0.0393098,0.0001552105,9.62615e-06,0.0060050786,0.004462391,2.8312206e-06,0.008450925,0.015243828
0.00010719895,0.0,9.596348e-06,4.172325e-07,0.0,0.000808537,0.0032724738,0.0001399517,0.9976372,0.002994895
3.9041042e-06,0.12260133,0.011117578,0.09468919,0.018150955,0.9997452,0.11841902,0.00097334385,0.78067786,4.6104193e-05
6.4373016e-05,6.2584877e-07,0.0007890761,1.3411045e-06,8.940697e-08,0.64198077,0.019025415,9.834766e-07,0.04837686,0.03688392
0.0034293234,0.0,1.7881393e-07,5.096197e-06,5.9604645e-08,0.0001861453,0.00039732456,2.0861626e-07,0.9979633,0.00012555718
0.81916094,5.722046e-06,0.00087836385,7.748604e-07,1.7881393e-07,0.0006375909,0.00047674775,1.2069941e-05,0.00018113852,0.063814014
0.013101727,1.1920929e-07,0.99576473,2.3841858e-06,1.7881393e-07,0.00031086802,0.0006570518,8.445978e-05,0.00018152595,0.00012099743
0.9823561,0.0,5.90086e-06,3.3169985e-05,2.9802322e-08,0.004241109,0.0004312992,3.695488e-06,0.0035693347,0.00036525726
0.13911948,4.4703484e-07,4.7683716e-07,5.3048134e-05,0.0,0.00042390823,0.0007136762,0.002547592,0.44017914,0.017351449
2.95043e-06,0.9956159,0.00059327483,0.006695837,0.0058838725,0.0083507,0.00056517124,9.23872e-07,0.7994262,0.00013807416
0.00012513995,0.0,3.5762787e-07,0.99998426,0.0,0.0005290508,0.00046607852,3.874302e-07,0.00011473894,1.1026859e-06
8.34465e-07,0.016588837,0.021253407,0.66469944,0.0016766787,0.0002619028,0.0017647147,1.1920929e-07,0.99717873,8.583069e-06
0.9971038,0.0,8.34465e-07,8.940697e-08,0.0,0.0008082986,0.0001707375,5.9604645e-07,2.3514032e-05,0.00053587556
0.00018569827,5.9604645e-08,0.00043907762,2.8014183e-06,6.556511e-07,0.9999721,0.0015234649,9.030104e-06,0.008863717,0.00040131807
0.9952408,0.0,2.9802322e-07,1.6391277e-06,0.0,0.0012535453,0.0011307597,1.2874603e-05,4.7564507e-05,0.0009138286
1.1920929e-07,1.7881393e-06,0.00010436773,7.9363585e-05,8.6426735e-07,0.9999354,0.0075292587,1.847744e-05,0.988271,2.1606684e-05
1.66893e-06,1.4305115e-06,5.066395e-07,0.99999964,2.1457672e-06,0.0038965642,0.020829976,0.0,0.0006271601,1.7881393e-07
8.34465e-07,0.9889823,0.0005618334,0.9981446,0.00015458465,0.011490345,0.0013078451,2.9802322e-08,0.8279245,5.453825e-06
3.6656857e-06,6.854534e-07,0.00010699034,2.8461218e-05,1.6838312e-05,1.0,0.0014036,7.8082085e-06,0.013996035,4.3213367e-06
0.0007467866,0.0,8.940697e-07,1.4901161e-07,1.7881393e-07,2.1785498e-05,9.9122524e-05,1.6987324e-06,0.9994225,2.3841858e-06
0.004978776,0.0,0.0,5.9604645e-08,2.0861626e-07,1.9341707e-05,0.00021463633,4.3213367e-06,0.9871362,0.00046497583
0.012188911,0.0,0.00010210276,8.404255e-06,0.020699978,0.00027784705,0.001008004,0.00034558773,0.76067615,0.0009862483
0.0020550787,6.556511e-06,0.01848784,1.2129545e-05,1.6838312e-05,6.273389e-05,0.0026546419,7.4505806e-06,0.99733007,4.017353e-05
0.7364936,2.9802322e-08,2.4616718e-05,9.834766e-07,1.1920929e-07,0.033709496,0.0017403066,0.00013148785,0.001038909,0.0016024709
0.85729563,0.0,1.40070915e-05,1.5199184e-06,5.9604645e-08,0.15999508,0.0019221306,1.7404556e-05,0.00034967065,0.00023457408
0.0067557096,2.3663044e-05,5.6743622e-05,0.000102609396,1.2010336e-05,0.00082856417,0.051558673,0.36844254,0.02975285,0.066530645
0.9959556,0.0,2.3841858e-07,1.1920929e-07,5.9604645e-08,0.0001321733,0.00013393164,1.3113022e-06,5.877018e-05,0.0038160682
0.00010421872,0.0,0.0019062757,2.8908253e-06,4.720688e-05,0.00013682246,0.0018287599,1.7672777e-05,0.99867916,0.0010553598
4.887581e-06,0.99954534,5.7041645e-05,0.008459389,0.00013944507,0.0058032274,0.00025233626,2.9802322e-08,0.90597856,3.9935112e-05
0.0,8.940697e-08,0.9988459,0.9995538,0.9500048,0.0016609132,0.024949908,4.172325e-07,0.0013808012,2.9802322e-07
6.4969063e-06,0.99937665,0.0004977286,5.7816505e-05,3.427267e-06,0.01850766,0.00046882033,1.4901161e-07,0.0071134865,0.00050476193
0.9962673,0.0,4.7683716e-07,6.556511e-07,0.0,0.0028874874,0.00087052584,2.4735928e-06,0.0005258918,0.0002568066
6.771088e-05,0.0010026097,7.659197e-06,0.0001244545,8.940697e-08,0.0015754402,0.0023418665,2.9802322e-08,0.98366034,0.011290193
0.021789312,0.0,2.4735928e-06,5.9604645e-08,0.0,0.0006715059,0.0032196343,1.1920929e-07,0.9895723,0.000100046396
9.6052885e-05,3.1590462e-06,6.854534e-07,2.0861626e-06,1.4901161e-06,0.0057762265,0.9975151,0.0,0.0030017197,0.005603373
0.03177935,0.0,7.778406e-06,3.5762787e-06,6.854534e-07,0.0003143847,0.0010557771,0.00033083558,0.9839045,0.00010120869
0.00019064546,0.0,8.08835e-05,2.4139881e-05,2.9802322e-07,4.786253e-05,0.000987649,2.1755695e-06,0.039510578,0.8895227
0.99397373,0.0,1.6987324e-06,5.8710575e-06,0.0,0.000997901,0.00065493584,5.930662e-06,9.119511e-05,0.00044304132
0.044053793,0.0,2.3245811e-06,1.5795231e-06,7.748604e-07,0.00017952919,0.0021182,2.9802322e-07,0.0037871897,0.96728367
0.0008968711,0.0,0.82614523,5.066395e-07,0.0015146434,0.00010806322,0.00011307001,1.3053417e-05,0.001049161,0.003248185
5.9604645e-08,6.848574e-05,1.1026859e-06,0.9999924,1.2516975e-06,0.006369561,0.7656858,1.1920929e-07,0.00012657046,6.854534e-07
0.99439776,0.0,2.503395e-06,4.7683716e-07,0.0,0.0017639697,0.0003466606,4.2676926e-05,1.0997057e-05,0.00019451976
0.60405034,4.172325e-07,0.0002860725,3.2514334e-05,2.9802322e-08,0.0007786453,0.0003285706,0.0012021363,0.0013372898,0.27751604
5.9604645e-08,9.5158815e-05,0.00020691752,0.3186049,0.00047528744,1.0,0.0065995157,2.8014183e-06,0.007253468,8.46386e-06
0.00027009845,5.9604645e-08,3.2186508e-06,5.9604645e-08,1.1622906e-06,0.0007585585,0.005568713,9.059906e-05,0.00015059114,0.98971784
1.1026859e-06,0.9974177,0.000831306,0.002962023,0.000100165606,0.891935,0.00010865927,3.1292439e-06,0.08096838,9.685755e-06
0.30673558,0.0,4.9471855e-06,5.9604645e-08,3.361702e-05,0.0001347065,0.0003375709,0.124604076,5.1170588e-05,0.15907335
0.9957665,0.0,6.556511e-07,4.172325e-07,5.9604645e-08,0.00085642934,0.0004965067,8.761883e-06,4.8965216e-05,0.0005014539
0.65594196,0.0,4.172325e-07,5.158782e-05,2.3841858e-07,0.00046479702,0.00076153874,6.556511e-05,0.43962,0.00040271878
0.2610286,7.867813e-06,0.0714995,3.1888485e-06,4.3809414e-06,0.004024744,0.002662152,0.010309905,0.019066513,0.07265368
1.4483929e-05,8.940697e-08,2.3841858e-07,1.5795231e-06,0.0,0.00012090802,0.0019589067,0.0,0.99931157,0.00011265278
0.99663115,0.0,6.854534e-07,1.7881393e-07,2.682209e-07,0.0009383857,0.00057172775,1.3113022e-05,2.0205975e-05,0.00076404214
0.0011598468,0.0,3.5762787e-07,3.5762787e-07,0.0,4.6283007e-05,0.00045073032,4.172325e-07,0.99942625,7.045269e-05
0.03496158,0.0,3.3676624e-06,5.9604645e-08,5.066395e-06,9.840727e-05,0.00019022822,1.8298626e-05,0.98413616,0.00037169456
0.001680404,0.0,2.6226044e-06,9.983778e-06,9.23872e-07,0.0002412796,0.00088727474,2.8312206e-06,0.9988228,7.9870224e-05
1.5199184e-06,9.834766e-07,4.258752e-05,8.1300735e-05,3.9041042e-06,0.99999976,0.0024883747,7.390976e-06,0.045308977,1.2665987e-05
0.00025719404,4.3809414e-05,0.001668036,2.6226044e-06,1.4603138e-06,0.0016983151,0.99844444,2.682209e-07,7.370114e-05,2.4974346e-05
1.385808e-05,0.9983667,6.791949e-05,0.052987933,5.662441e-07,0.04035747,0.00067043304,2.9802322e-08,0.24370834,0.00027182698
0.00042301416,0.9594647,0.00046631694,9.009242e-05,6.556511e-06,0.00961706,0.0035932362,1.013279e-06,0.0015045702,0.14604548
7.778406e-06,0.9301464,0.0021843612,5.853176e-05,5.9604645e-08,0.0018920302,0.0030181706,3.5762787e-07,0.99912876,1.8566847e-05
0.18007004,0.0,0.0,8.940697e-08,0.0,4.2915344e-06,4.285574e-05,0.91881365,4.2408705e-05,2.4139881e-05
0.0,5.9604645e-08,1.12354755e-05,0.9999944,0.04816982,0.0002795756,0.0026332736,1.7881393e-07,0.008789659,2.771616e-06
