0,1,2,3,4,5,6,7,8,9
0.96341276,0.0,4.261732e-06,5.841255e-06,2.771616e-06,0.0022861958,0.0020583868,1.1622906e-06,0.008784384,0.0009249449
0.91917074,0.0,6.854534e-07,0.00017097592,2.9802322e-08,0.0018713474,0.0009223223,0.022928983,5.352497e-05,0.0018465221
1.1265278e-05,1.5497208e-06,0.0024670362,0.0005877316,0.972656,0.9990319,0.026264131,4.7802925e-05,0.0014231205,2.5600195e-05
0.0,2.4706125e-05,1.2516975e-06,0.999992,1.8775463e-06,0.0010557771,0.8782462,2.9802322e-08,2.1189451e-05,1.3709068e-06
2.4229288e-05,0.0,2.0861626e-07,0.9999941,5.364418e-07,0.00036922097,0.0003029704,0.0,8.815527e-05,0.0
0.9863003,0.0,0.0,0.0,0.0,5.313754e-05,0.0005951226,0.00016629696,5.096197e-06,4.0203333e-05
0.0015405118,4.4703484e-07,6.556511e-06,0.0001566112,1.7881393e-07,0.0017206073,0.0104697645,5.9604645e-08,0.9896034,0.00070130825
0.0,0.0,2.115965e-06,0.9999999,0.97505236,0.00010794401,0.001067698,0.0,0.00016310811,0.0
8.940697e-08,0.0,4.4703484e-07,0.6734616,2.9802322e-08,4.0203333e-05,0.0020366013,1.2516975e-06,0.99989,5.9604645e-08
0.00015687943,6.3985586e-05,1.4603138e-06,3.3080578e-06,8.34465e-07,0.0046959817,0.99849576,2.7418137e-06,0.015851885,0.0005726814
1.6987324e-06,8.34465e-07,0.84581995,5.4210424e-05,8.046627e-06,0.00080657005,0.016563982,7.867813e-06,0.99763733,8.672476e-06
0.00059363246,0.0,1.5556812e-05,8.940697e-08,5.9604645e-08,3.2752752e-05,0.0018102527,1.1324883e-06,0.9995632,6.854534e-07
5.066395e-07,0.30567622,0.0001591444,0.99032235,1.9073486e-06,0.0018531978,0.002180934,0.0,0.850506,0.00020009279
0.00019302964,0.9474423,0.028675169,0.00628379,1.5497208e-05,0.005713433,0.0061039925,1.758337e-06,0.033239096,0.027611464
0.0454683,0.0,3.7431717e-05,7.1525574e-06,8.940697e-08,0.000706017,0.0028431714,0.00030446053,0.9689357,6.0886145e-05
0.0057964027,0.016066998,0.0030323565,0.00010341406,2.5629997e-06,0.0032161772,0.2808895,1.6093254e-06,0.8062866,0.0045263767
0.0,0.0,1.6391277e-06,0.99999785,1.1652708e-05,0.00019922853,0.0061443746,0.0,0.19064477,0.0
0.981519,5.9604645e-08,2.3245811e-05,2.1219254e-05,0.0,0.001260668,0.0007342398,1.6391277e-06,0.00051245093,0.005982369
1.2516975e-06,0.001565218,0.06962642,0.00013950467,0.0010799766,0.008894056,0.7770745,0.0018929243,0.08238301,0.0032598078
9.536743e-06,1.6987324e-06,1.3709068e-06,0.00037941337,8.136034e-06,0.0002709329,0.8187678,5.90086e-06,0.99236953,1.335144e-05
0.9975172,0.0,3.5762787e-07,8.940697e-08,0.0,0.00047299266,0.0006027818,1.0639429e-05,7.942319e-05,2.5510788e-05
0.005624324,4.261732e-06,0.9559895,0.0012789071,5.662441e-07,0.00152269,0.0018482208,2.1219254e-05,0.0014840364,0.00012847781
0.997766,0.0,8.940697e-08,4.172325e-07,0.0,0.00028827786,0.0005322993,4.172325e-07,0.00011640787,0.0002194643
0.00047039986,1.8805265e-05,0.0007645786,0.0683811,5.1259995e-06,0.0033628345,0.0050679445,1.8566847e-05,0.9890263,0.00048068166
0.0008853078,0.0,2.0384789e-05,2.7120113e-06,5.543232e-06,0.00010865927,0.004650712,9.23872e-07,0.99894565,1.2725592e-05
1.847744e-06,2.3722649e-05,0.5970242,0.00071945786,0.034452796,0.18091822,0.021507144,0.0010654628,0.04722008,0.029231906
0.0019868016,0.0006034374,5.310774e-05,1.1920929e-07,8.34465e-07,0.0032087266,0.8698227,0.00025308132,0.00039225817,0.0021146238
0.972541,0.0,1.1324883e-06,0.0,0.0,0.000116854906,0.00056540966,0.0075350404,2.7179718e-05,5.7071447e-05
0.033822298,8.940697e-08,5.1259995e-06,2.732873e-05,1.7881393e-07,0.00020286441,0.0013462603,0.99100435,0.00346753,2.7269125e-05
1.1026859e-06,0.99439186,0.00022378564,0.3756663,1.1026859e-06,0.0022852123,0.014909446,0.0,0.97996783,0.0002847612
0.00034719706,3.552437e-05,5.9604645e-08,4.172325e-07,1.1920929e-07,0.0037636757,0.99795413,1.1920929e-07,0.013935715,0.0006122589
8.493662e-06,2.8371811e-05,1.013279e-06,4.5895576e-06,3.5762787e-07,0.003579557,0.9960792,3.5762787e-07,0.27452883,0.0002912283
0.024630189,2.95043e-06,2.3841858e-06,3.5762787e-07,2.413988e-06,0.0012063086,0.9884833,4.4703484e-07,0.000451833,4.145503e-05
1.3113022e-06,2.0861626e-07,2.1606684e-05,0.9999833,0.00015115738,0.0005055964,0.021728218,7.095933e-05,9.11355e-05,4.1127205e-06
0.8125975,0.0,7.838011e-06,4.7683716e-07,1.847744e-06,0.0011076629,0.0019008517,1.3023615e-05,0.43166184,5.8591366e-05
0.9984071,0.0,5.066395e-07,0.0,0.0,0.0003221929,0.00026100874,5.9604645e-08,1.1861324e-05,3.501773e-05
0.9616489,0.0,2.4437904e-06,1.013279e-06,1.7881393e-07,0.0013352036,0.0016969144,5.9604645e-08,0.046716362,0.00093606114
0.997494,0.0,2.9802322e-07,2.682209e-07,0.0,0.00047424436,0.0006714165,9.834766e-07,4.541874e-05,8.249283e-05
0.952468,0.0,4.2021275e-06,4.172325e-07,5.9604645e-08,0.001178205,0.0006327927,4.440546e-06,0.0001309812,0.06015539
3.4362078e-05,2.9802322e-08,2.861023e-06,1.8000603e-05,5.9604645e-08,0.00014913082,0.0030457675,2.9802322e-08,0.99995196,6.1690807e-06
2.3841858e-06,8.046627e-06,0.93959105,6.893277e-05,1.0788441e-05,0.0010679662,0.0019381642,3.990531e-05,0.9944982,7.6293945e-06
0.8963811,8.940697e-08,4.1127205e-06,5.3048134e-06,2.5331974e-06,0.0028290153,0.0032523274,3.5762787e-07,0.08139685,0.0008582771
1.0430813e-06,7.927418e-06,0.015396088,0.00013035536,0.0002860725,0.9999908,0.010721445,0.00015336275,0.13134632,2.3454428e-05
4.261732e-06,0.99954796,3.2782555e-05,0.0034667552,6.854534e-07,0.0027074814,0.00023844838,0.0,0.9767417,8.0138445e-05
5.90384e-05,5.9604645e-08,8.7320805e-06,3.4213066e-05,2.9802322e-08,0.00013959408,0.016057968,1.4901161e-06,0.9999002,1.2040138e-05
0.052030742,0.0,5.9604645e-08,5.185604e-06,1.0728836e-06,0.00011974573,0.00010827184,0.9811691,0.0013816357,7.981062e-05
0.02681017,2.9802322e-08,6.043911e-05,1.3113022e-06,3.874302e-06,0.00051504374,0.003831029,8.6426735e-07,0.9927227,2.6196241e-05
0.00033801794,1.847744e-06,0.00020730495,0.0240722,3.5464764e-06,0.001105547,0.0040075183,0.00012162328,0.98117745,0.0082552135
5.8054924e-05,0.9989953,0.0007711351,0.011221647,7.086992e-05,0.018139035,0.00086280704,8.940697e-08,0.38885435,0.0009276271
0.99801576,0.0,1.4901161e-07,1.7881393e-07,0.0,0.0006214678,0.00069117546,2.3841858e-07,7.5131655e-05,5.2154064e-06
0.00021162629,4.172325e-07,0.0010068715,1.3113022e-05,3.6150217e-05,0.48320454,0.022497714,0.0049939156,0.0045796037,0.00031921268
6.613135e-05,0.9983486,0.00017169118,0.00069215894,8.6426735e-07,0.0037949681,0.0018149614,3.2782555e-07,0.045879096,0.00085553527
3.1888485e-06,4.1604042e-05,0.0009851456,3.889203e-05,1.1742115e-05,0.9999939,0.017820477,1.6242266e-05,0.51932454,4.1931868e-05
0.755538,8.940697e-08,4.5895576e-06,3.1977892e-05,0.0,0.0023051798,0.0009121895,0.00044119358,0.5677419,0.00022771955
0.94902414,1.0460615e-05,0.00049075484,2.8312206e-06,6.5863132e-06,0.0024840236,0.0017398894,1.3411045e-05,0.0025528073,0.025817066
3.2782555e-06,0.99976707,8.106232e-06,0.002464056,3.2246113e-05,0.025298387,0.00046670437,0.0,0.07528463,0.00033593178
0.9518603,5.662441e-07,2.8908253e-06,1.758337e-06,0.0,0.0018481016,0.0012748837,1.1920929e-07,0.04353267,0.0020775497
2.861023e-06,0.99146956,0.009378582,0.00040456653,1.7881393e-07,0.005687952,0.0064253807,7.748604e-07,0.001388371,0.00051271915
0.9754222,0.0,1.129508e-05,3.5762787e-07,4.7683716e-07,0.0011439025,0.0015954077,2.360344e-05,0.007189423,0.0005940795
6.273389e-05,0.9972068,2.9176474e-05,0.00042897463,4.7683716e-07,0.0044867992,0.0024240613,0.0,0.12371859,0.009808779
0.9989133,0.0,1.7881393e-07,8.940697e-08,0.0,0.00020363927,0.0008480251,7.748604e-07,1.0222197e-05,6.020069e-06
0.048853397,3.1292439e-06,4.836917e-05,3.4868717e-06,6.556511e-07,0.60913604,0.024956375,3.6358833e-06,0.4215357,0.00025746226
4.5269728e-05,8.195639e-06,0.0011995733,0.030830562,0.8932893,0.97425294,0.02475053,0.00017046928,0.0065063536,0.00038021803
2.9802322e-08,7.390976e-06,8.940697e-08,3.7282705e-05,7.122755e-06,5.927682e-05,0.028566182,0.0,0.99303627,3.5971403e-05
0.027890444,6.2584877e-06,3.5315752e-05,9.536743e-06,7.748604e-07,0.0016808212,0.03616643,2.0861626e-07,0.8578967,0.016777337
0.99816,0.0,4.7683716e-07,0.0,0.0,0.00015485287,0.0004094839,8.314848e-06,0.00014957786,1.2695789e-05
0.99388015,0.0,2.9802322e-07,3.5762787e-07,0.0,0.0007123649,0.00040200353,1.54078e-05,0.000395298,0.000813961
4.6789646e-06,4.172325e-07,0.0031007826,4.720688e-05,0.0029560626,4.273653e-05,0.0056166947,7.4505806e-07,0.99979603,0.00012752414
0.00046220422,1.9073486e-06,0.0025925338,8.177757e-05,1.0251999e-05,0.0008739233,0.004067689,0.09449974,0.819911,0.004816681
0.1797444,0.0,2.9802322e-08,2.9802322e-08,0.0,7.867813e-06,0.00038599968,0.96343946,7.2717667e-06,2.1755695e-06
0.06404966,0.0,2.0861626e-07,6.0796738e-06,0.0,0.00030976534,0.0012065172,8.940697e-08,0.9693736,9.298325e-06
0.9765436,0.0,1.7881393e-07,1.3709068e-06,2.3841858e-07,0.0014519095,0.0017540157,2.2053719e-06,0.001665771,0.00055009127
6.2286854e-06,5.9604645e-08,1.2934208e-05,0.9999882,1.0609627e-05,0.0005289018,0.0029509664,2.9802322e-07,0.0003145337,1.0728836e-06
9.468198e-05,1.7881393e-07,6.0796738e-06,0.9999157,8.940697e-08,0.0003078282,0.0017665625,1.0430813e-06,0.00025624037,2.3841858e-06
7.0035458e-06,0.0,6.67572e-06,0.9999983,1.66893e-06,0.00010842085,0.0011080205,0.0,4.670024e-05,8.940697e-08
0.00011232495,2.9802322e-08,8.523464e-06,6.3180923e-06,1.2814999e-06,0.00053840876,0.019061387,2.8312206e-06,0.9979662,0.0001949668
0.6266266,0.0,9.536743e-07,1.6093254e-06,2.3841858e-07,0.0006609261,0.0010499954,0.4510012,0.00011858344,0.0003311336
0.9529809,0.0,2.464652e-05,1.1920929e-07,2.9802322e-08,0.0013395548,0.0018054843,0.0016286373,0.000970304,0.019274801
0.86955214,2.9802322e-08,9.208918e-06,4.887581e-06,0.0,0.0013928115,0.0009650886,0.0018850565,0.114501625,0.0002334714
0.19182202,7.1525574e-07,2.4437904e-06,0.27412808,1.9073486e-06,0.0042312145,0.002869159,8.583069e-06,0.009379327,0.00015255809
0.98127836,0.0,2.2649765e-06,5.662441e-07,0.0,0.0029343069,0.0024101138,2.8192997e-05,0.00028264523,0.0021167994
0.0107296705,2.9802322e-08,2.3454428e-05,8.195639e-06,0.9768543,0.00271675,0.0033193827,3.6358833e-06,0.003316015,9.661913e-05
0.9938922,0.0,1.2516975e-05,8.34465e-07,0.0,0.0014667809,0.0011700988,1.7791986e-05,0.0001949668,2.2292137e-05
0.99675727,0.0,1.1920929e-07,1.4901161e-07,0.0,0.0020962358,0.000764519,8.940697e-07,0.00014400482,3.951788e-05
1.1622906e-05,8.940697e-08,0.00028714538,3.1530857e-05,0.00020325184,0.000110179186,0.013605982,8.136034e-06,0.9997052,3.0696392e-06
0.9872264,0.0,2.9206276e-06,0.0,2.682209e-07,0.0008350909,0.0030826032,0.0004938245,0.00011691451,0.00025448203
3.5762787e-07,1.1920929e-07,4.1007996e-05,0.00015950203,1.6868114e-05,0.8302283,0.05954829,6.109476e-06,0.9935739,3.993511e-06
1.1920929e-07,5.662441e-07,0.00028780103,0.00017902255,0.0002654791,0.00031766295,0.0011086166,3.3974648e-06,0.0019996166,0.9868237
2.3841858e-07,8.34465e-07,2.2649765e-06,0.99999917,8.6426735e-07,0.00027939677,0.04611239,0.0,0.004097581,8.940697e-08
1.013279e-06,0.99971473,6.780028e-05,0.119421065,0.0050078332,0.0034326315,0.00027662516,0.0,0.5405857,5.9872866e-05
0.0071884096,2.9802322e-08,6.607175e-05,2.7418137e-06,0.00028413534,0.0019616783,0.019881546,1.6987324e-05,0.9852309,0.00016278028
0.98825645,0.0,5.364418e-07,2.0861626e-07,0.0,0.0012507737,0.0007967651,1.4901161e-07,0.026254952,2.4080276e-05
4.7683716e-07,0.0,0.0,4.172325e-07,2.0861626e-07,2.9802322e-08,8.821487e-06,0.0,4.6491623e-06,0.99996626
0.33339095,0.0,2.0563602e-06,1.463294e-05,2.9802322e-08,0.00029861927,0.00062581897,0.74032426,0.0026732683,0.014086217
5.9604645e-08,4.6044588e-05,0.7284399,0.00075408816,0.00039577484,0.9999997,0.002877444,0.000141114,0.17860553,2.0980835e-05
0.9846587,0.0,2.9802322e-08,5.662441e-07,0.0,0.00045070052,0.00045886636,8.940697e-08,0.006449461,1.937151e-05
1.2934208e-05,0.0001129508,0.9748752,1.731515e-05,0.00028544664,0.006484121,0.091842175,8.136034e-06,0.9742108,0.00017520785
0.93613845,5.9604645e-08,1.1146069e-05,2.0563602e-06,1.7881393e-07,0.000523597,0.0022633672,0.00449121,0.00016927719,0.0037602484
2.9802322e-08,0.004929632,4.172325e-06,0.9999691,4.351139e-06,0.009814203,0.81169033,2.9802322e-07,0.020357907,4.3213367e-06
1.5109777e-05,1.4901161e-07,0.00017178059,1.3411045e-06,1.013279e-06,1.4543533e-05,0.00019130111,0.0026130378,0.0018429458,0.98735553
0.99153155,0.0,6.8843365e-06,8.34465e-07,2.0861626e-07,0.0012384355,0.0009980798,3.8594007e-05,0.0023772717,0.0002167821
0.9276633,2.9802322e-08,3.4570694e-06,8.195639e-06,1.013279e-06,0.0018388033,0.0032020211,9.23872e-07,0.013429046,0.0008061528
1.463294e-05,8.940697e-08,0.000323534,0.00013059378,0.00054088235,0.0001475811,0.015479863,5.1259995e-06,0.9998758,1.9907951e-05
0.038558155,0.0,2.3245811e-06,1.0728836e-06,2.771616e-06,0.00022938848,0.0006798208,1.1920929e-07,0.14926594,0.47912368
0.98129916,0.0,1.6093254e-06,4.172325e-06,1.7881393e-07,0.0024555624,0.0016439855,1.859665e-05,0.00017812848,1.3321638e-05
2.3841858e-07,0.6236303,0.0019115806,0.99533725,6.854534e-07,0.0028131902,0.042310923,0.0,0.120993525,0.00037002563
5.093217e-05,5.0365925e-06,0.00086164474,0.00026342273,1.4007092e-06,0.9999236,0.011187553,0.0026361644,0.0032007098,0.00014677644
4.2915344e-06,1.66893e-05,0.2973758,0.99913895,0.0030394495,0.00202626,0.013878673,2.0861626e-06,0.15844738,0.00033843517
0.95029366,0.0,2.026558e-06,4.172325e-06,3.5762787e-07,0.0035615563,0.0050349236,2.9802322e-07,0.015618503,0.0024212003
1.3232231e-05,2.9802322e-08,7.1525574e-07,0.99999356,8.34465e-07,0.00029188395,0.002040118,8.940697e-08,0.00025475025,1.1026859e-06
0.98951805,0.0,5.9604645e-08,1.1026859e-06,0.0,0.00043195486,0.0007686913,5.6624413e-05,0.00036773086,9.506941e-06
4.7385693e-06,1.7881393e-07,0.0011862218,0.98924035,0.99415195,0.001239568,0.0072273314,0.0,0.021416813,1.5199184e-06
8.940697e-08,0.9944835,7.7188015e-06,0.39922878,5.9604645e-08,0.00021073222,0.0005662441,0.0,0.9987078,2.0563602e-06
0.98236,0.0,1.3709068e-06,4.4703484e-07,1.7881393e-07,0.0028364062,0.0048523247,3.5762787e-07,0.00020799041,0.00026389956
0.0,2.7298927e-05,0.98552394,0.00025439262,2.5182962e-05,0.00041928887,0.0024117827,1.013279e-06,0.9950376,1.0341406e-05
0.9541682,2.0861626e-07,0.0016370714,1.4901161e-07,8.940697e-07,0.0018690228,0.0031816363,6.3478947e-06,0.00428614,0.0040341616
7.4505806e-07,5.364418e-07,1.3619661e-05,1.1146069e-05,1.3411045e-06,0.98249674,0.016437203,2.1457672e-06,0.9425007,0.00013184547
8.136034e-06,0.0014847219,0.043748945,0.004370302,0.0004892349,0.9996315,0.023438841,0.0005045235,0.084055305,0.00010448694
3.3676624e-06,6.3180923e-06,0.00036799908,0.9999665,6.1541796e-05,0.002326578,0.10073215,2.503395e-06,0.0018888712,1.001358e-05
1.4364719e-05,0.0,2.2053719e-06,1.9669533e-06,8.34465e-07,3.9815903e-05,0.0005272925,0.99848694,0.0006687641,0.00026458502
0.9917395,0.0,9.23872e-07,1.1920929e-07,3.5762787e-07,0.00044435263,0.001128614,4.7683716e-07,0.0016565919,0.00024113059
0.9953568,0.0,2.3841858e-07,5.364418e-07,0.0,0.0011741817,0.00053974986,5.543232e-06,0.0004298687,0.00015550852
0.99880826,0.0,4.7683716e-07,2.9802322e-08,0.0,0.00037118793,0.0009138286,1.1920929e-07,5.349517e-05,6.4730644e-05
0.11229044,0.0,5.364418e-07,0.00010564923,0.0,0.0035057962,0.0009316206,4.10676e-05,0.9156989,0.0013052821
0.2913242,8.031726e-05,3.6358833e-06,4.091859e-05,2.0861626e-07,0.00096449256,0.0010105371,8.940697e-08,0.27891856,0.004394263
1.1920929e-07,3.8444996e-06,1.9073486e-06,0.0,0.0,0.0,1.4305115e-06,0.0,2.682209e-07,0.9940801
0.00036033988,6.943941e-06,0.034398973,9.006262e-05,3.1590462e-06,0.00097355247,0.0023068786,1.937151e-06,0.25784218,0.9399964
1.2993813e-05,0.9502398,0.05310765,0.0044407845,0.00014925003,0.003115505,0.006120026,0.00010377169,0.00540334,0.10507476
0.002120763,0.0,2.6762486e-05,7.301569e-06,1.5974045e-05,0.0011716783,0.008310229,1.66893e-06,0.9944912,0.00020110607
0.94732034,0.0,6.4343214e-05,4.7683716e-07,6.2584877e-07,0.0021919906,0.0012054443,3.1292439e-06,0.018364847,0.008207619
5.453825e-06,0.99927175,0.00045967102,0.0046752393,4.041195e-05,0.036777526,0.0030108094,1.1324883e-06,0.25731024,0.00025260448
0.00014221668,0.0,2.3633242e-05,1.5795231e-06,8.940697e-08,9.703636e-05,0.0047008097,1.1920929e-07,0.9997386,1.8835068e-05
0.00265342,2.5391579e-05,1.14142895e-05,2.1100044e-05,2.771616e-06,0.007627338,0.839038,2.9444695e-05,0.019076616,0.001973331
0.93392634,0.0,1.1920929e-07,5.9604645e-08,0.0,0.00028675795,0.00032645464,0.0,0.114798546,0.00010421872
2.3841858e-07,0.99915737,0.00014221668,0.8816023,7.69794e-05,0.0031482875,0.0008417368,0.0,0.018243074,6.5892935e-05
1.1920929e-07,6.2584877e-07,0.00020503998,0.9999354,0.014608204,0.00029179454,0.0044634044,3.9041042e-06,0.00085121393,4.1514635e-05
0.10647032,4.172325e-07,2.0623207e-05,0.51164824,0.00034561753,0.0037891865,0.0032489896,4.172325e-07,0.018861681,0.00045385957
0.76612073,1.4901161e-06,2.3514032e-05,4.7683716e-07,8.940697e-08,0.0005531907,0.001862973,2.3841858e-07,0.42399475,0.005564809
0.024467617,8.6426735e-07,0.07601434,1.0251999e-05,2.3543835e-06,0.0009675026,0.008658856,1.5228987e-05,0.91135585,5.763769e-05
2.5331974e-06,0.0,5.543232e-06,8.791685e-06,3.874302e-07,0.00012460351,0.0032519996,1.5795231e-06,0.9999372,9.23872e-07
0.09378329,2.3841858e-07,2.3394823e-05,8.85129e-06,0.0,0.0007261038,0.0043919086,1.3291836e-05,0.9249424,0.0004892647
0.8623952,0.0,2.9802322e-07,1.3709068e-06,0.0,0.00034731627,0.0009289384,1.8805265e-05,0.21125337,4.0233135e-06
0.98071325,1.7881393e-07,8.7320805e-06,5.841255e-06,5.9604645e-08,0.0013666153,0.0033462346,1.9967556e-06,0.0055291057,0.00100106
0.99907756,0.0,2.3841858e-07,2.9802322e-08,0.0,0.00042071939,0.00068968534,2.0563602e-06,2.3812056e-05,1.642108e-05
2.9802322e-07,5.9604645e-08,4.4703484e-07,0.9999972,4.172325e-07,0.0018710792,0.01947704,3.5762787e-07,0.00015494227,0.0
0.09053597,5.9604645e-07,6.4373016e-06,1.0728836e-05,2.9802322e-08,0.0010872483,0.0040133297,1.7881393e-07,0.94816864,0.00049737096
0.9525182,0.0,1.847744e-06,8.34465e-07,0.0,0.00028029084,0.0011189282,0.00011730194,0.01939717,7.712841e-05
0.9979666,0.0,5.066395e-07,0.0,0.0,0.0005209446,0.0009820759,1.1026859e-06,2.0325184e-05,0.0005005598
0.008090198,1.1920929e-07,0.0001476109,2.413988e-06,1.9073486e-06,0.0011983514,0.028441757,9.23872e-07,0.96073556,0.0014128983
0.9911941,0.0,7.867813e-06,4.5001507e-06,5.9604645e-08,0.0040944517,0.0014677644,1.1354685e-05,0.0028052926,6.651878e-05
0.45976606,5.9604645e-08,5.733967e-05,4.6491623e-06,3.5762787e-06,0.0018657744,0.00551793,9.834766e-07,0.535696,0.0011771321
0.0013197958,0.87750113,0.0027411878,0.00017428398,9.23872e-07,0.008441925,0.013154656,4.082918e-06,0.0135579705,0.008560926
0.006216973,8.076429e-06,1.7881393e-07,0.00013709068,8.940697e-08,0.0042204857,0.9896439,0.00011190772,3.2424927e-05,0.0004900396
0.008452803,0.00011405349,0.0006569326,0.00047326088,4.839897e-05,0.98033834,0.08349523,0.00015872717,0.35221475,0.0039711
5.5134296e-06,0.0,0.0003248155,0.00030463934,4.172325e-07,0.0017219782,0.013341904,0.0,0.9991723,1.6987324e-05
0.80593157,4.1127205e-06,0.00042662024,8.34465e-07,5.9604645e-08,0.0002168715,0.0005065501,1.4901161e-06,9.202957e-05,0.3257913
2.3543835e-06,0.0,7.250905e-05,0.0006595552,0.83912027,0.00032681227,0.010040224,2.0861626e-07,0.9794551,2.2143126e-05
9.328127e-06,0.9517548,0.009126544,0.025093585,8.773804e-05,0.023067683,0.10873914,8.34465e-07,0.2600212,0.00096958876
3.3974648e-06,0.0,2.7954578e-05,0.9999816,2.1785498e-05,0.00039857626,0.0026808083,2.9802322e-08,0.00078067183,5.7816505e-06
0.99773055,0.0,8.940697e-08,8.940697e-08,0.0,0.00034931302,0.00078976154,1.6182661e-05,4.9471855e-06,2.0325184e-05
0.14188057,1.1920929e-07,0.00014063716,9.685755e-06,1.1622906e-06,0.0005725324,0.000762254,0.72367376,2.0682812e-05,0.004640013
0.0068544745,3.2782555e-07,1.8566847e-05,4.5210123e-05,0.0,0.99941844,0.0007455349,4.7683716e-07,0.01051262,3.3676624e-06
5.9604645e-08,0.0,9.834766e-07,4.7683716e-07,0.0,5.9604645e-08,2.1338463e-05,0.0,5.662441e-07,0.99999714
1.7881393e-07,0.9894979,0.0013014376,0.004204899,2.9802322e-08,0.0003953874,0.0010499358,0.0,0.99968046,5.9604645e-07
0.0,1.9460917e-05,0.0003401935,0.99998933,0.0017736554,0.0026304722,0.21030447,3.0100346e-06,0.0032218099,1.5199184e-06
0.00078752637,1.7881393e-07,0.00012075901,8.583069e-06,2.2649765e-06,0.00022575259,0.01489678,7.122755e-05,0.99628067,0.000107347965
8.940697e-08,9.834766e-07,1.4901161e-07,5.1170588e-05,2.682209e-07,0.000107347965,0.59129417,4.7683716e-07,0.99963677,3.9428473e-05
0.9783994,0.0,2.4139881e-05,2.9802322e-07,3.2186508e-06,0.0010326505,0.0017226934,2.6226044e-06,0.0009663999,0.0019685924
0.71363133,0.0,2.4437904e-06,9.536743e-07,2.9802322e-08,0.0006440878,0.001894772,4.684925e-05,0.5896337,1.5288591e-05
8.9138746e-05,2.9802322e-08,5.751848e-06,5.507469e-05,2.56598e-05,0.00022619963,0.013803005,2.3841858e-07,0.9995245,1.3679266e-05
0.00020366907,0.032050252,0.00023409724,0.0164693,0.00031164289,0.09943712,0.6806143,1.0818243e-05,0.007161945,0.035820305
0.9943067,0.0,1.937151e-06,1.1622906e-06,8.940697e-08,0.0028869212,0.0022364855,2.0861626e-07,0.000523746,0.00021392107
0.9952787,0.0,5.9604645e-08,1.4901161e-07,0.0,0.0013218224,0.0028318465,9.536743e-07,0.0002874434,0.000151366
0.0001103878,2.0861626e-07,1.9490719e-05,0.00015032291,4.3809414e-06,0.00022482872,0.0028399825,5.841255e-06,0.0015445352,0.99708253
0.86334276,2.3841858e-07,5.0365925e-06,5.066395e-07,0.0,0.012415081,0.075618416,1.3381243e-05,0.0003978908,0.00013718009
0.00015231967,0.9756026,0.044232994,0.00047695637,1.4007092e-06,0.007968277,0.03360796,1.8775463e-06,0.022494555,0.003694564
0.0,2.9802322e-08,4.172325e-07,0.9999988,0.39247465,5.8561563e-05,0.0010430515,0.0,0.00046870112,5.9604645e-08
6.7055225e-06,4.7683716e-07,5.9604645e-08,2.2053719e-06,4.61936e-06,0.0016423464,0.99966496,0.0,0.00010293722,1.7136335e-05
0.99165523,0.0,5.9604645e-08,2.0861626e-07,0.0,0.00016024709,0.00082302094,0.00026991963,7.4625015e-05,9.536743e-06
1.1920929e-07,2.3841858e-07,0.9928014,3.2186508e-06,1.090765e-05,0.000109285116,0.007875949,4.4554472e-05,0.9945043,6.854534e-07
1.7881393e-07,0.0003774464,0.0005861223,0.004098743,0.00010353327,0.99999833,0.015426934,1.9162893e-05,0.030661345,0.00011512637
0.9928719,8.940697e-08,1.2218952e-06,1.5199184e-06,2.9802322e-08,0.0008099377,0.0009991527,1.7881393e-07,0.0017469227,0.00074633956
8.329749e-05,0.00015339255,0.004538417,0.00020086765,1.2397766e-05,0.99924374,0.06352019,0.004262954,0.004049152,0.0020577013
5.9217215e-05,0.0,3.3646822e-05,3.951788e-05,0.0,8.660555e-05,0.0023473203,0.00060784817,0.99990815,3.5762787e-06
8.940697e-08,1.707673e-05,0.00027352571,0.0008137524,2.8699636e-05,0.13019413,0.7797967,3.3676624e-06,0.51301455,0.0017643571
9.000301e-06,0.97041106,0.0035375357,0.9163931,3.2275915e-05,0.011739433,0.010986686,8.940697e-08,0.5152146,0.002845049
2.771616e-06,3.5762787e-06,0.00037747622,9.062886e-05,1.3113022e-05,0.99999964,0.0048469305,1.3738871e-05,0.09721953,2.3841858e-06
0.14749828,2.8371811e-05,0.000413388,9.834766e-07,5.364418e-07,0.00024926662,0.0014890134,5.9604645e-08,0.0011920929,0.7930546
0.709901,5.9604645e-08,3.874302e-07,5.722046e-06,8.940697e-08,0.0010171235,0.0031232536,2.9802322e-08,0.66812134,0.00014349818
0.84757143,2.9802322e-08,1.66893e-06,1.7285347e-06,0.0,0.00067836046,0.000983417,9.3758106e-05,0.53762215,2.18153e-05
1.7881393e-07,2.2649765e-05,0.00258407,0.0011236966,0.00016880035,0.9977069,0.009225756,4.053116e-06,0.08025476,0.0009717345
2.9802322e-07,1.475215e-05,0.8964609,3.644824e-05,0.0,6.741285e-05,0.0019639432,1.6391277e-06,0.9995852,3.4868717e-06
0.057592243,0.0001372397,0.0021876395,6.905198e-05,0.0019908845,0.001250118,0.0070750117,5.066395e-07,0.53657615,0.013440102
2.9087067e-05,1.3798475e-05,0.0029008687,4.3958426e-05,1.2397766e-05,0.928915,0.009879321,1.2814999e-06,0.96233904,0.0011953712
0.85779,0.0,4.798174e-06,3.385544e-05,5.066395e-07,0.0022021532,0.0014942884,0.00030708313,0.029604077,0.0032861233
0.83933234,1.4901161e-07,7.3194504e-05,3.0994415e-06,3.5762787e-07,0.0021204948,0.0017467737,2.0861626e-06,0.069282055,0.021399528
0.00026404858,4.2021275e-06,0.00069093704,4.9620867e-05,4.735589e-05,0.85803485,0.04568249,0.0011624992,0.004189968,0.04286602
2.9802322e-07,1.758337e-06,0.99125254,7.274747e-05,5.3048134e-06,0.00045397878,0.037871867,1.1622906e-06,0.99808794,6.556511e-07
1.2218952e-06,5.2690506e-05,0.4004511,5.2303076e-05,6.8843365e-06,0.21067032,0.16989204,0.00021663308,0.97752607,9.715557e-05
2.682209e-07,0.00029215217,1.1026859e-05,0.9851306,0.012903661,0.00067549944,0.92922074,4.172325e-07,0.3912784,0.00020197034
0.7651744,1.5199184e-06,3.9607286e-05,0.0015510917,0.016761184,0.014860362,0.011680603,5.632639e-06,0.008395761,0.003241688
0.002996534,5.9604645e-08,0.9887428,3.5762787e-07,9.328127e-05,0.0005232394,0.005238205,7.05421e-05,8.4877014e-05,8.6694956e-05
0.03194791,2.9802322e-08,1.5199184e-06,9.268522e-06,1.1920929e-07,0.0002399385,0.0017314553,0.0,0.9864397,0.00018778443
2.8014183e-06,0.033628017,0.07968989,0.9998895,0.004401982,0.0034358203,0.00705871,5.9604645e-08,0.006180793,7.8082085e-06
0.99786687,0.0,5.662441e-07,2.9802322e-08,0.0,0.0004937947,0.0014305711,5.9604645e-08,5.596876e-05,3.4570694e-06
0.0031614602,3.5762787e-07,2.2351742e-06,6.1690807e-06,5.662441e-07,0.014377445,0.93756145,9.23872e-07,0.0031207502,0.00044983625
5.9366226e-05,0.0,2.0861626e-06,0.00031387806,0.000410825,6.631017e-05,0.0019462407,5.9604645e-08,0.99967563,6.6161156e-06
1.2755394e-05,0.0,3.3974648e-06,0.99999094,2.9802322e-08,0.0001667738,0.0011356473,2.9802322e-08,1.168251e-05,3.5762787e-07
0.99271953,0.0,4.7683716e-07,5.364418e-07,4.7683716e-07,0.0016964078,0.0019600987,9.983778e-06,0.00016599894,2.1785498e-05
0.6164136,1.2814999e-06,7.021427e-05,0.09574148,9.864569e-06,0.006994188,0.0011355877,4.9233437e-05,0.0023091435,0.039173245
0.0015619099,0.0,8.046627e-07,2.3841858e-07,0.0003399253,3.7938356e-05,0.0014294684,2.9802322e-08,0.9977366,3.874302e-07
9.199977e-05,4.5001507e-06,0.00036242604,3.2186508e-06,6.4969063e-06,0.99999654,0.011205673,2.4199486e-05,0.06424251,0.000121086836
0.92706084,8.136034e-06,4.917383e-06,0.00012689829,1.9669533e-06,0.0031991005,0.011358082,2.3543835e-06,0.00014328957,0.0010268092
2.026558e-06,0.0,0.00029066205,0.9999088,3.3974648e-06,0.00016358495,0.001857847,5.9604645e-08,1.8805265e-05,2.3841858e-07
0.9899539,9.23872e-07,3.9219856e-05,3.2782555e-07,0.0,0.00048458576,0.000759393,1.2516975e-06,0.0003630817,0.010055691
2.798438e-05,0.0,3.2782555e-07,3.5762787e-07,2.9802322e-08,0.00015062094,0.0019860566,0.9999378,1.9460917e-05,0.00017747283
0.00024944544,5.7816505e-06,5.9634447e-05,5.6922436e-06,5.9604645e-07,0.008214116,0.9158236,7.2717667e-06,0.25528878,0.00083613396
0.00013741851,2.9802322e-08,8.583069e-06,6.2584877e-07,0.0,1.6182661e-05,0.0020013452,2.9802322e-08,0.9999062,1.0728836e-06
0.9950596,0.0,5.364418e-07,5.9604645e-08,2.9802322e-08,0.001075387,0.0011915863,4.4703484e-07,8.2194805e-05,6.9230795e-05
0.013278097,5.662441e-07,8.699298e-05,9.804964e-06,8.046627e-07,0.0012611747,0.0039123595,8.34465e-07,0.95565104,0.034781486
0.9498801,0.0,4.8577785e-06,0.0,0.0,0.107242346,0.00057309866,5.662441e-07,6.720424e-05,5.13494e-05
6.735325e-06,0.0,1.1920929e-07,0.99999154,3.993511e-06,0.00043916702,0.0004325807,0.0,0.00021985173,4.4703484e-07
0.3273363,2.0861626e-07,0.0010001659,2.0563602e-06,6.556511e-06,0.0006002784,0.0033736527,1.4007092e-06,0.2563998,0.07077658
2.1189451e-05,0.2441161,0.090836644,0.00038918853,4.0352345e-05,0.05079052,0.1993601,0.00010180473,0.07528028,0.022096157
0.99808884,0.0,1.4901161e-07,2.3841858e-07,0.0,0.00057056546,0.0013747215,7.4505806e-07,0.00022104383,1.3321638e-05
0.9658071,0.0,1.1622906e-06,7.301569e-06,1.8179417e-06,0.0009895861,0.0013334453,0.00014197826,0.0013045967,0.00021642447
4.798174e-06,3.4987926e-05,0.0002863109,0.99996334,0.0002052486,0.07048577,0.039892107,5.662441e-07,0.000531137,1.9669533e-06
0.99633706,0.0,2.9802322e-08,8.940697e-08,0.0,0.0002889037,0.00059220195,0.0,0.0007751882,5.0663948e-05
7.1525574e-07,5.751848e-06,0.0005954802,0.00020080805,9.10759e-05,0.99962616,0.0064841807,0.0007851422,0.06061858,0.0014427006
6.2584877e-07,0.9993604,7.125735e-05,0.00051289797,5.364418e-07,0.00036749244,0.000105410814,0.0,0.99823594,2.1755695e-06
0.9948107,0.0,9.23872e-07,5.364418e-07,0.0,0.0015507042,0.0014196038,8.940697e-08,0.0015464723,0.000104010105
0.99493587,0.0,6.854534e-07,3.0398369e-06,2.9802322e-08,0.0021398664,0.0010401607,2.8014183e-06,0.0004618168,7.6919794e-05
0.015537411,7.4505806e-07,4.529953e-06,2.8312206e-06,6.854534e-07,0.003962517,0.8937473,3.874302e-07,0.000101566315,0.00013464689
0.018779248,0.0,2.1457672e-06,3.5762787e-07,0.0,4.196167e-05,0.001112014,0.9980278,1.1622906e-05,3.5315752e-05
4.87864e-05,2.1070242e-05,4.5120716e-05,6.017089e-05,9.5665455e-06,0.99836135,0.043161124,2.2470951e-05,0.03605947,0.002388537
5.6922436e-06,0.9812958,0.0013792515,0.0031267703,3.1113625e-05,0.9112699,0.0061311424,1.1622906e-06,0.6468005,0.00018805265
0.9961686,0.0,1.1622906e-06,2.9802322e-08,0.0,0.0009806454,0.0013552904,1.7881393e-07,0.00019684434,0.0007683635
1.7881393e-06,0.0,3.8444996e-06,0.0048929155,2.0861626e-06,6.54757e-05,0.0038120449,6.854534e-07,0.9999739,5.9604645e-08
0.99442506,0.0,8.940697e-08,1.1920929e-07,8.940697e-08,0.00050473213,0.0008163452,3.0398369e-06,0.00053939223,0.00024738908
1.1920929e-07,0.0,1.9669533e-06,0.99999976,0.001872927,0.00023269653,0.0011433959,0.0,0.00010624528,0.0
0.001889348,8.961558e-05,6.955862e-05,3.59118e-05,8.940697e-08,0.9961374,0.07757214,6.2584877e-07,0.008139759,0.0001245141
0.9812481,0.0,5.9604645e-07,1.4901161e-07,0.0,0.00019422174,0.00077036023,0.0012788773,3.5256147e-05,5.352497e-05
3.9041042e-06,0.00019460917,3.8951635e-05,2.2649765e-05,5.364418e-06,0.0008068085,0.92287385,2.3245811e-06,0.97052395,0.0046427846
0.7019297,2.9802322e-08,4.836917e-05,3.1888485e-06,3.1590462e-06,0.0025574565,0.0014823675,4.2915344e-06,0.021756262,0.075674325
0.90552014,0.0,0.0,0.0,0.0,1.1026859e-06,0.00024330616,3.2782555e-07,0.0021214485,0.004075527
0.99113417,0.0,3.5762787e-07,2.9802322e-08,2.9802322e-08,0.00037291646,0.001276195,7.560849e-05,0.00018540025,1.1265278e-05
0.017569184,0.0,2.1457672e-06,1.0699034e-05,5.9604645e-08,0.0006700754,0.003979206,1.3113022e-06,0.9938718,3.4928322e-05
0.021410912,0.0,3.6418438e-05,1.5974045e-05,4.172325e-07,0.0018540621,0.0031038225,4.61936e-06,0.9806403,0.0008070767
0.0014453828,3.5762787e-07,0.0016651154,7.042289e-05,0.00012487173,0.00029945374,0.0037896037,8.493662e-06,0.5370011,0.4760218
0.17775106,0.0,1.5199184e-05,1.937151e-06,8.940697e-08,0.0030274987,0.0050213635,2.503395e-06,0.71523577,0.0005964041
6.854534e-07,0.0,8.5532665e-06,0.99999917,3.516674e-06,0.0002284348,0.0025311112,6.2584877e-07,6.964803e-05,0.0
4.3958426e-05,1.8179417e-06,0.00025185943,3.257394e-05,4.887581e-06,0.0040593743,0.0102624,3.0338764e-05,0.98885226,0.002954483
1.7881393e-07,3.1292439e-06,0.0036693513,0.9999956,0.000114649534,0.00051280856,0.0051016808,0.0,0.01765263,2.682209e-07
1.3411045e-06,0.0,4.7683716e-07,0.9999993,2.8312206e-06,0.0004235804,0.0015432835,2.3841858e-07,1.1265278e-05,5.9604645e-08
0.9965507,0.0,2.3841858e-07,2.9802322e-08,0.0,0.00032696128,0.00048613548,5.5909157e-05,0.00020080805,2.0980835e-05
0.008320272,0.0,1.9669533e-05,1.2487173e-05,0.05574557,0.0033714175,0.0013434291,1.680851e-05,0.9318018,3.6269426e-05
0.0,3.516674e-05,1.859665e-05,0.9989566,0.99639755,0.0012775362,0.9220195,5.9604645e-08,0.014603615,4.172325e-07
0.9974276,0.0,9.23872e-07,2.9802322e-07,0.0,0.0012149513,0.0014001727,7.3611736e-06,2.3186207e-05,1.1652708e-05
0.00022178888,4.4703484e-06,3.3974648e-05,3.1143427e-05,6.556511e-07,0.00015559793,0.0040441453,2.9802322e-07,0.99964774,9.292364e-05
0.00010854006,5.9604645e-08,0.0006957054,0.0019569397,7.355213e-05,0.0003851354,0.0035401285,6.2286854e-06,0.9991547,1.8388033e-05
3.963709e-06,0.0,8.702278e-06,3.9458275e-05,1.1026859e-06,0.000418514,0.007861227,2.2351742e-06,0.9999438,5.543232e-06
0.00017052889,0.987855,0.008998305,0.0015493929,5.4836273e-06,0.00779745,0.013289362,5.066395e-07,0.88437843,0.0024280548
2.798438e-05,1.2129545e-05,6.6161156e-06,0.99949896,0.053800315,0.043799073,0.002888769,1.9460917e-05,0.00068330765,0.00010237098
2.4437904e-06,5.9962273e-05,0.97665906,5.2452087e-05,6.1541796e-05,0.999558,0.018834352,2.771616e-05,0.0062094927,1.3709068e-06
0.032515824,3.427267e-06,0.00052446127,1.7672777e-05,3.5762787e-07,0.92461276,0.0016293228,0.0002424717,0.0012650192,0.0003425181
1.3709068e-06,4.5776367e-05,0.0119098425,7.57575e-05,1.5825033e-05,0.9999976,0.013496131,7.7188015e-06,0.010096699,4.172325e-06
0.99117225,0.0,2.861023e-06,3.2782555e-07,0.0,0.00077685714,0.0011657178,2.2411346e-05,0.00036269426,8.195639e-06
4.887581e-06,0.0,4.7683716e-07,2.2917986e-05,0.0,0.00012776256,0.0022817254,6.1392784e-06,0.9999697,2.3841858e-07
0.00023022294,0.0,8.8989735e-05,9.834766e-07,0.0,0.00012731552,0.004797697,1.3709068e-06,0.9997843,5.9604645e-08
0.00016114116,0.0,9.030104e-06,6.2584877e-07,0.0,3.97861e-05,0.0019934773,3.606081e-05,0.99821043,0.00031888485
0.7428281,8.940697e-08,1.1920929e-06,1.6480684e-05,0.0,0.002491802,0.0014421642,2.0861626e-06,0.8435915,3.7550926e-05
8.821487e-06,1.4901161e-07,8.225441e-06,1.2010336e-05,2.9802322e-08,6.92904e-05,0.0057234466,0.0,0.99997854,7.838011e-06
0.0006528795,0.88747954,0.02531454,0.0017770827,5.6922436e-05,0.013911456,0.07086715,5.4240227e-06,0.1522027,0.13475728
2.0861626e-06,4.172325e-06,0.03539601,0.999945,0.0043320656,0.0009030998,0.0048342347,1.1920929e-07,0.06240642,3.5762787e-07
0.9914708,0.0,4.172325e-07,5.364418e-07,0.0,0.0011826754,0.001162678,5.9604645e-07,0.005631089,1.1712313e-05
0.0017813146,1.7881393e-07,6.404519e-05,1.6123056e-05,5.9604645e-08,0.00033921003,0.0012892187,4.976988e-06,0.9961464,0.000116586685
0.09392989,2.0861626e-07,3.746152e-05,0.00030246377,3.5077333e-05,0.002190739,0.0051262677,9.179115e-06,0.7846323,0.00012099743
6.2584877e-07,0.00041759014,0.03713891,0.0011496544,3.924966e-05,0.004733503,0.027120262,5.3048134e-06,0.99937946,0.00034156442
0.34669438,0.00013238192,0.15487775,1.0162592e-05,6.854534e-07,0.0037940145,0.05025658,0.0032141507,0.005069822,0.0411025
0.32116646,3.516674e-06,5.0365925e-06,5.066395e-07,0.000108897686,0.0014120042,0.024414629,3.5762787e-07,0.00056898594,0.6729464
0.9938477,0.0,2.682209e-07,8.34465e-07,8.940697e-08,0.0014182031,0.00089627504,2.3245811e-06,0.00016966462,1.0669231e-05
0.9870884,0.0,5.066395e-07,2.95043e-06,0.0,0.0025900304,0.0011312664,3.7431717e-05,0.0016676486,0.0027903914
0.964527,0.0,8.583069e-06,2.9802322e-08,2.9802322e-08,0.0008624196,0.0012830496,0.0007754266,0.0018004775,0.00082853436
5.3048134e-05,0.030182093,0.7414552,3.7550926e-06,8.434057e-06,0.014238894,0.13725957,2.0056963e-05,0.0029755235,0.0018691123
0.0019451082,1.1920929e-07,0.027971148,9.5665455e-06,7.748604e-07,0.001050204,0.014387816,0.00024223328,0.9899353,5.7160854e-05
6.1392784e-06,0.9941908,0.020073742,0.16113326,6.368756e-05,0.017529279,0.0038359761,4.827976e-06,0.4279433,0.00064244866
0.9606744,0.0,1.3411045e-06,1.5497208e-06,1.3113022e-06,0.000839442,0.0013723075,5.9604645e-08,0.0036108196,8.785725e-05
0.9386058,0.0,7.4505806e-07,4.142523e-06,3.5762787e-07,0.0012213886,0.0008905828,2.0861626e-07,0.06475663,0.0005836785
0.0,0.00090926886,0.2744297,0.99996746,0.0045199096,0.0023804307,0.16840848,2.9802322e-08,0.0030184686,2.9802322e-07
2.0563602e-06,0.9982055,0.0032618642,0.0018285215,2.4437904e-06,0.017102897,0.004050195,1.847744e-06,0.5103685,0.00024038553
5.8799982e-05,0.0,1.1742115e-05,1.8775463e-06,3.5762787e-07,2.989173e-05,0.002560705,0.0,0.99992657,1.758337e-06
0.99075127,1.1920929e-07,4.4703484e-07,1.7881393e-07,0.0,0.0016546249,0.013592333,1.4901161e-07,0.00047668815,0.00028523803
2.4944544e-05,2.9802322e-07,0.00018018484,0.00212878,4.2378902e-05,0.00040975213,0.010857403,7.0631504e-06,0.999231,0.00016143918
3.6358833e-06,0.0,3.33786e-05,5.00679e-06,0.27938175,2.4795532e-05,0.012553394,3.874302e-07,0.9995396,8.6426735e-07
0.9969995,0.0,1.7881393e-07,2.9802322e-08,5.9604645e-08,0.00034362078,0.00068590045,1.0311604e-05,0.0003939271,5.942583e-05
3.874302e-07,1.2218952e-05,0.0018698573,1.7791986e-05,2.4288893e-05,0.99981344,0.013279945,4.3213367e-06,0.81729984,0.0016617775
2.9802322e-08,0.5793737,0.13402966,0.033459157,0.00028949976,0.99950093,0.002309084,2.771616e-06,0.86365354,7.867813e-06
0.00906837,5.9604645e-08,4.23193e-06,0.9717165,4.7683716e-07,0.0020478964,0.0022306144,9.089708e-06,0.00010192394,6.908178e-05
0.99480224,0.0,1.7881393e-07,4.7683716e-07,0.0,0.00019875169,0.0005518198,2.3186207e-05,0.00037765503,1.8626451e-05
0.029846877,2.682209e-07,5.8472157e-05,1.2218952e-06,2.9802322e-08,3.9458275e-05,0.0018085837,0.90991044,0.011032611,0.0017628968
0.020739377,6.657839e-05,0.8092717,1.385808e-05,3.0994415e-06,0.0031613111,0.004421085,5.0216913e-05,0.38185602,0.0006208122
0.94099545,0.0,1.4901161e-07,4.7683716e-07,2.9802322e-08,0.00020354986,0.00023624301,0.024082541,4.9054623e-05,0.00022953749
0.9963926,0.0,3.5762787e-07,1.1920929e-07,0.0,0.00073865056,0.0010346174,1.4007092e-06,0.00011989474,0.00025489926
8.940697e-08,0.0011588633,0.00028327107,0.9994512,0.00010332465,0.0006046891,0.37285057,0.0,0.72052324,0.00014609098
0.9866655,0.0,7.212162e-06,2.0861626e-07,3.5762787e-07,0.0011103451,0.005038142,0.000107586384,3.6895275e-05,4.9591064e-05
0.010614991,8.940697e-08,0.0004506111,5.811453e-06,1.5497208e-06,0.0026569366,0.0033697784,0.00025129318,0.990422,0.00013241172
0.0003489852,2.0563602e-06,6.2584877e-07,1.3709068e-06,1.1831522e-05,0.001781553,0.98130524,1.7881393e-07,0.109570146,0.0015514493
0.0,7.748604e-07,2.8312206e-05,0.9999989,0.00041103363,0.00026345253,0.02279535,6.2584877e-07,0.00065276027,1.7881393e-06
0.99254394,0.0,2.115965e-06,1.1920929e-07,5.9604645e-08,0.0011068583,0.0010757744,2.0861626e-06,0.00025820732,2.977252e-05
0.99806106,0.0,5.9604645e-08,1.4901161e-07,0.0,0.0006622076,0.0010923147,1.7881393e-07,8.353591e-05,3.8415194e-05
8.046627e-06,8.383393e-05,0.00055107474,0.000377357,0.00012499094,0.99693215,0.05322334,2.6226044e-06,0.0070750415,0.010520816
1.1920929e-07,0.0,2.9444695e-05,1.9669533e-06,2.9802322e-07,5.337596e-05,0.0026892126,0.00011828542,0.999327,0.000823617
1.7881393e-07,1.4901161e-07,1.5795231e-06,1.385808e-05,8.940697e-08,5.2392483e-05,0.3719182,1.0728836e-06,0.99994636,1.7553568e-05
0.0005020797,5.9604645e-08,4.172325e-06,9.596348e-06,2.9802322e-07,0.001013577,0.0034386218,8.940697e-08,0.99907714,5.733967e-05
2.3245811e-06,1.692772e-05,0.9800685,1.2516975e-05,0.00017547607,0.004371524,0.12225214,3.1888485e-06,0.4657036,0.00021088123
0.9914216,0.0,5.364418e-07,4.798174e-06,0.0,0.00063046813,0.000898242,5.6922436e-06,0.00051796436,0.0001001358
1.1920929e-07,3.8444996e-06,1.9073486e-06,0.0,0.0,0.0,1.4305115e-06,0.0,2.682209e-07,0.9940801
0.0018437803,2.9802322e-08,0.0009728372,4.23193e-06,0.9968926,8.7827444e-05,0.0015020072,6.854534e-07,4.5359135e-05,0.00033935905
0.9695703,0.0,1.6599894e-05,6.2584877e-07,0.0,0.0019533634,0.0016010404,4.7683716e-07,0.004488051,0.007930875
0.068924606,4.2527914e-05,0.00087559223,0.00028446317,7.5519085e-05,0.005016178,0.0076568425,0.00024926662,0.0504871,0.4848683
0.9904821,0.0,1.2516975e-06,3.0100346e-06,0.0,0.0017933547,0.0011969805,2.9802322e-07,0.005442649,0.00010403991
8.940697e-08,0.0,3.194809e-05,1.7881393e-07,0.0,1.4901161e-07,1.4722347e-05,0.0,2.9802322e-07,0.99998945
0.0004362762,0.0,0.000108361244,0.000120818615,1.7881393e-06,0.00050234795,0.004091054,0.00043269992,0.99292207,0.00029671192
0.082731605,8.940697e-08,7.3313713e-06,0.0027273893,7.748604e-07,0.0066269934,0.0033025146,8.34465e-07,0.79570615,0.005854726
0.9942794,0.0,1.2516975e-06,8.940697e-08,5.9604645e-08,0.00059354305,0.00087457895,5.9604645e-08,0.00018554926,0.000102221966
7.4505806e-06,1.090765e-05,2.026558e-06,3.9041042e-06,8.5532665e-06,0.010265946,0.9987235,2.026558e-06,0.0018577278,0.00042188168
7.1525574e-07,7.987022e-06,0.0018818378,0.000161767,0.00015854836,0.9999981,0.005540192,1.4424324e-05,0.2090857,5.3346157e-05
2.3722649e-05,0.0,1.0043383e-05,0.9999846,1.7881393e-07,0.0004041791,0.0025155842,1.0728836e-06,4.595518e-05,6.0498714e-06
0.9890059,0.0,5.8710575e-06,1.1920929e-07,2.9802322e-08,0.0025348961,0.0038900077,5.00679e-06,0.00014996529,0.001542151
1.0669231e-05,8.940697e-08,3.0994415e-06,0.9999972,8.940697e-07,0.00014489889,0.0008600056,5.9604645e-08,0.0005521178,2.0861626e-06
2.0861626e-07,0.83917,0.0034992099,0.99985814,0.0001424253,0.0015738606,0.0037582517,2.9802322e-08,0.11427918,2.1010637e-05
0.9951434,0.0,1.8179417e-06,1.1920929e-07,5.9604645e-08,0.00075033307,0.001141429,7.033348e-06,8.1300735e-05,0.00058338046
5.990267e-06,1.218915e-05,0.0019111335,0.010825008,0.10155478,0.9998604,0.016769826,0.0019117594,0.002065599,4.351139e-05
1.2516975e-06,0.0,2.3841858e-06,0.9999994,5.9604645e-08,8.431077e-05,0.0025039017,5.9604645e-08,1.1026859e-05,2.9802322e-08
4.440546e-06,0.0,1.22487545e-05,1.4901161e-07,0.0,2.977252e-05,0.0010210574,7.7188015e-06,0.99994826,3.4570694e-06
0.0013372898,1.4901161e-07,1.3113022e-06,0.9981376,5.364418e-07,0.002027005,0.0024176836,5.066395e-07,0.008989871,1.8179417e-06
0.00011110306,2.0861626e-06,0.00016489625,0.00012224913,5.1170588e-05,0.000109285116,0.0013973713,0.0,0.0036860406,0.98391134
5.662441e-07,0.0,1.4901161e-07,0.99999857,0.0,2.1338463e-05,0.0017590225,1.1920929e-07,1.013279e-05,2.3841858e-07
0.0014238358,0.00011667609,1.7881393e-06,5.990267e-06,2.0861626e-07,0.0074477494,0.8354409,3.874302e-07,0.59602034,0.0011855066
0.997208,0.0,3.5762787e-07,1.7881393e-07,0.0,0.00073209405,0.00071409345,1.7821789e-05,0.00012290478,1.3530254e-05
0.99907196,0.0,2.0861626e-07,8.940697e-08,0.0,0.00028443336,0.00081303716,5.662441e-07,1.31726265e-05,2.2172928e-05
0.7706938,8.940697e-08,2.6673079e-05,0.0001078248,6.854534e-07,0.0031628609,0.0015316308,0.010523766,0.023682177,0.0018031299
0.015275389,1.4603138e-06,4.708767e-06,1.8566847e-05,2.9802322e-08,0.0031385124,0.93136895,0.033659965,3.159046e-05,0.00010481477
0.0,0.0,8.6426735e-07,0.9999875,6.1392784e-06,0.00014260411,0.0010859966,0.0,0.9169574,0.0
2.3752451e-05,0.0006260872,0.033306986,1.5437603e-05,0.00010600686,0.9772581,0.031345516,8.940697e-07,0.4053501,0.052164882
0.06256688,0.0,1.4305115e-06,8.910894e-06,3.0994415e-06,0.0018435121,0.0025951266,5.662441e-07,0.6386713,0.012616426
1.7881393e-07,0.0065570176,0.44639042,0.0012830794,2.0623207e-05,0.00059759617,0.49972138,2.0861626e-07,0.9981518,5.042553e-05
0.64860564,0.0,1.7881393e-07,8.940697e-08,1.4901161e-07,4.0352345e-05,0.00057166815,0.1551365,0.00019964576,5.155802e-06
0.002832681,1.7881393e-07,0.00019773841,1.9550323e-05,1.3917685e-05,0.00020176172,0.0055046678,3.874302e-07,0.9949934,0.0005502999
0.9925016,0.0,7.0929527e-06,3.874302e-07,0.0,0.0010163486,0.0017692447,0.0002155006,5.9634447e-05,6.392598e-05
0.9848472,0.0,2.3841858e-07,1.9073486e-06,0.0,0.0014300048,0.0014709234,2.682209e-07,0.013287753,0.00011998415
0.001113981,6.2286854e-06,0.98979867,1.5288591e-05,0.0,0.0012885034,0.004211575,5.662441e-07,0.025574863,2.8431416e-05
0.99691856,0.0,1.8179417e-06,0.0,5.9604645e-08,0.00054079294,0.0008727014,3.3676624e-06,0.00065004826,0.00026601553
1.013279e-06,0.0,2.771616e-06,3.0964613e-05,0.0,2.8073788e-05,0.0006569624,3.4868717e-06,0.9986967,0.0025031865
0.21185726,0.0,8.046627e-06,3.5762787e-06,4.082918e-06,0.0015153587,0.0027562976,1.6391277e-06,0.7255131,0.00013875961
0.9883846,8.940697e-08,2.6106834e-05,3.2782555e-06,2.2947788e-06,0.0020674467,0.002554834,9.536743e-07,0.0005835891,0.00040572882
0.008244395,0.0,6.824732e-06,5.9604645e-07,2.8908253e-06,0.00021141768,0.0028067231,2.9802322e-08,0.930734,0.002348721
0.076440215,0.0,3.33786e-06,3.6358833e-06,5.9604645e-08,0.00049850345,0.001979351,7.748604e-07,0.9790224,8.5771084e-05
3.5762787e-07,1.3947487e-05,0.9995543,0.0011918247,0.001314491,0.0021945536,0.022796571,7.623434e-05,0.019986272,0.0026501417
2.3841858e-07,0.0,3.8146973e-06,8.940697e-08,0.0010992885,4.3541193e-05,0.008459479,0.0,0.999829,1.4901161e-06
3.105402e-05,0.0004183948,0.002945453,8.761883e-05,0.17572165,0.002831757,0.12440586,3.5226345e-05,0.039357454,0.24322328
0.12106937,0.0,8.6426735e-07,9.268522e-06,5.9604645e-08,0.00058171153,0.0024985075,3.874302e-07,0.9789564,5.5372715e-05
1.3560057e-05,0.0,3.0100346e-06,9.268522e-06,0.0,5.9247017e-05,0.0043973923,1.1920929e-07,0.99998504,5.662441e-07
0.9939091,0.0,2.3841858e-07,2.0861626e-07,2.9802322e-08,0.0007119477,0.0019173324,1.4901161e-07,0.00046119094,0.00017559528
0.004547745,1.1920929e-07,2.5331974e-06,4.0233135e-05,2.3841858e-07,0.0007185936,0.006537527,5.662441e-07,0.98520374,0.0060982406
2.3841858e-07,3.33786e-06,0.39743707,3.1083822e-05,5.403161e-05,0.99986804,0.010214031,2.861023e-06,0.96117985,3.9041042e-06
0.06383929,4.172325e-07,2.2828579e-05,2.95043e-06,8.940697e-08,0.007792264,0.011314273,4.708767e-06,0.95024204,0.00029698014
0.9709715,0.0,1.9967556e-06,1.7642975e-05,0.0,0.0034749806,0.0013001561,2.3245811e-06,0.044799656,0.0001436472
0.99100447,0.0,3.1888485e-06,1.7285347e-06,1.7881393e-07,0.0037955344,0.0013822913,4.440546e-06,0.0003017485,0.0007440448
7.620454e-05,0.0,4.2915344e-06,4.798174e-06,2.9802322e-08,0.00022384524,0.0046144724,1.2218952e-06,0.9998402,3.8444996e-06
9.301305e-05,1.1920929e-07,0.9996819,6.854534e-07,1.6093254e-06,0.00043910742,0.0011543632,4.7683716e-07,0.00071910024,9.596348e-06
0.9966491,0.0,1.4901161e-07,5.9604645e-08,1.7881393e-07,0.00044167042,0.00077492,8.940697e-08,0.00018379092,1.4603138e-05
0.9528688,0.0,7.1823597e-06,5.662441e-07,2.0861626e-07,0.0029604435,0.0019874275,4.082918e-06,0.009583235,0.0014246702
0.9824683,0.0,2.0861626e-07,8.940697e-08,0.0,9.49502e-05,0.0004917979,0.0023294985,8.639693e-05,0.00021252036
0.0,7.31647e-05,0.97744286,0.0014361739,0.0004387498,0.9540249,0.006273836,7.748604e-07,0.99365455,1.6987324e-06
0.9910315,0.0,2.861023e-06,1.1920929e-07,1.1920929e-07,0.00065255165,0.0015650988,1.1354685e-05,0.0019975603,3.2544136e-05
8.791685e-06,0.5129618,0.008480132,0.00090944767,1.2516975e-06,0.0040014684,0.05166316,5.275011e-06,0.98662674,0.00383237
4.827976e-06,0.986289,0.014348388,0.0011136234,3.796816e-05,0.8894348,0.0010097623,3.1292439e-06,0.1752663,0.0011832118
0.14752129,1.1920929e-07,1.8179417e-06,0.00010287762,2.3841858e-07,0.002841562,0.0038881898,3.5762787e-07,0.87181103,0.00013017654
8.940697e-08,0.0,0.00018021464,0.99999756,0.7210862,0.0008327961,0.004095316,1.4901161e-07,0.00502041,8.940697e-08
0.9434115,2.9802322e-08,0.00013437867,4.5895576e-06,9.23872e-07,0.0032514632,0.004695207,1.4603138e-05,0.10709539,8.08835e-05
9.331107e-05,1.7881393e-07,7.69794e-05,6.556511e-06,0.0,0.0002412498,0.0034495294,5.7816505e-06,0.99844015,0.0017885566
0.014530987,0.0021909773,1.0788441e-05,2.0235777e-05,5.9604645e-08,0.0068775415,0.89415926,1.1533499e-05,0.048043996,0.00054481626
1.1920929e-06,0.0,2.3841858e-07,0.9999998,1.1920929e-07,0.00024530292,0.0016570985,0.0,4.9471855e-06,0.0
7.483363e-05,4.208088e-05,2.3841858e-07,2.4437904e-06,1.7881393e-07,0.0013526082,0.9978155,1.0073185e-05,0.000538826,0.0029726326
0.82021964,0.0,7.748604e-07,4.0233135e-06,0.0,0.0013253987,0.0015236735,7.4505806e-07,0.44063973,0.00024187565
0.95735174,0.0,5.415082e-05,4.7683716e-07,2.682209e-07,0.000680238,0.0026380122,0.010946512,8.5771084e-05,2.5838614e-05
2.0563602e-06,0.00029295683,0.0050658286,0.0010902882,0.006543666,0.9999624,0.010760486,0.0015365481,0.015163004,0.0011487603
2.3245811e-06,0.0,1.707673e-05,1.7642975e-05,2.9802322e-08,0.000118881464,0.0049435496,5.9604645e-08,0.9999692,1.32620335e-05
2.3841858e-07,0.00029319525,0.040831,0.9927101,7.6681376e-05,0.0012733936,0.026282728,2.9802322e-08,0.9762052,1.6093254e-06
0.26076025,2.682209e-07,3.1888485e-06,5.990267e-06,2.682209e-07,0.00035074353,0.0011333227,2.9802322e-08,0.744359,0.028736472
2.8908253e-06,0.0019353032,3.20673e-05,7.0273876e-05,2.503395e-06,0.002861768,0.8029796,0.0,0.9864311,0.0009379983
0.9939964,0.0,1.2516975e-06,4.172325e-07,0.0,0.0016987622,0.0018278956,3.0070543e-05,3.0845404e-05,0.00012740493
0.98810506,0.0,1.013279e-06,3.427267e-06,8.940697e-08,0.0009950697,0.0007724762,0.00064596534,4.5865774e-05,0.00048089027
6.735325e-06,0.0,1.6987324e-06,0.9999987,3.2782555e-07,0.00014951825,0.0017376244,0.0,0.00010550022,2.682209e-07
0.99461156,0.0,1.0728836e-06,8.940697e-08,0.0,0.003291458,0.0028204322,4.4703484e-06,0.00011843443,3.6150217e-05
0.0086018145,7.1555376e-05,0.00058311224,8.5532665e-06,4.6104193e-05,0.0031202435,0.011216879,4.7683716e-07,0.65105367,0.455352
0.007113427,0.0,3.3676624e-06,5.5402517e-05,2.026558e-05,0.0007660091,0.0003837049,0.9776572,0.010498017,0.0008932352
3.8146973e-06,0.0,3.963709e-06,3.1590462e-06,2.9802322e-08,5.9723854e-05,0.003995478,1.0430813e-06,0.99997973,2.1457672e-06
7.122755e-06,0.0,6.2584877e-07,0.99997276,2.3543835e-06,0.0002232492,0.0017939508,0.0,0.0040236413,2.9802322e-08
1.4007092e-06,0.953877,0.010387331,0.00065007806,0.5183131,0.0037913322,0.041296393,2.2649765e-06,0.023529202,0.00095385313
2.5779009e-05,1.4901161e-07,0.00021287799,0.00048094988,1.963973e-05,0.00061935186,0.0011743605,3.5077333e-05,0.0011889935,0.98554003
2.2649765e-06,0.0,4.172325e-07,0.99999833,3.784895e-06,0.0002876222,0.0010674298,0.0,0.0001193285,1.4901161e-07
3.9339066e-06,0.0,4.142523e-06,0.9999988,1.3738871e-05,0.00044241548,0.004440993,0.0,0.008093953,1.7881393e-07
0.00047373772,0.0,8.940697e-07,1.6748905e-05,5.066395e-07,0.00023683906,0.003923416,9.23872e-07,0.9993346,5.0365925e-06
0.742316,2.9802322e-08,2.4437904e-06,3.1888485e-06,4.4703484e-07,0.0028251708,0.0017482936,1.7285347e-06,0.15098515,0.009893149
0.99764454,0.0,3.5762787e-07,1.1920929e-07,0.0,0.00017261505,0.00043159723,6.9111586e-05,7.495284e-05,1.1622906e-05
6.2584877e-06,9.924173e-05,0.00021255016,0.002147168,7.137656e-05,0.008105397,0.9727857,0.002739966,9.891391e-05,0.015746444
0.0060736537,0.0,1.4156103e-05,0.00022166967,7.531047e-05,0.0013957024,0.004055351,5.662441e-07,0.98670775,0.00043556094
0.99786997,0.0,1.1920929e-07,8.940697e-08,0.0,0.000395149,0.0007137358,1.1920929e-07,8.9377165e-05,0.00062194467
0.99250305,0.0,4.7683716e-07,7.748604e-07,2.9802322e-07,0.0005379617,0.0028483272,1.2516975e-06,0.00015366077,0.0001630187
0.0004415512,1.4901161e-07,0.0004566908,0.00014775991,4.7385693e-06,0.0004956722,0.004762262,0.98336697,0.014485568,0.002538383
0.9919188,0.0,1.9133091e-05,5.9604645e-08,8.940697e-08,0.0019077361,0.001511097,9.298325e-06,0.0031540692,6.237626e-05
0.7595856,0.0,1.5795231e-06,2.3841858e-06,0.0,0.0002783537,0.00038936734,0.67932,4.4614077e-05,9.274483e-05
1.4901161e-07,5.066395e-07,0.9903882,1.9043684e-05,6.854534e-07,2.7656555e-05,0.00862515,2.9802322e-08,0.9996425,1.4901161e-07
4.9889088e-05,5.9604645e-08,0.9995676,9.23872e-07,0.00012052059,0.0019245148,0.0017907321,1.8775463e-06,0.105404496,3.2484531e-06
0.9872881,1.7881393e-07,0.0018954575,2.3841858e-07,2.682209e-07,0.00080630183,0.0035847425,9.357929e-06,5.477667e-05,0.0002773702
6.854534e-07,2.798438e-05,0.0015848577,0.0028658211,6.946921e-05,0.9999995,0.0034505427,0.00029927492,0.009757817,5.7071447e-05
0.31501928,8.940697e-08,0.0003527105,2.9802322e-08,2.9802322e-07,4.068017e-05,0.0014669001,0.00022509694,2.4974346e-05,0.22352037
0.9239477,0.0,4.3809414e-06,3.9041042e-06,8.940697e-08,0.0044160187,0.0021672845,0.0001077652,0.005587578,0.0054703355
7.238984e-05,0.0010921955,0.95552754,0.00021007657,6.407499e-05,0.009259582,0.032343328,2.0861626e-07,0.26009578,0.0010521114
4.887581e-06,1.2814999e-06,0.9961156,0.079817295,0.00022947788,0.0034597814,0.030676603,0.017546564,0.0003002286,2.2649765e-05
5.9604645e-08,0.043834418,0.00016826391,0.99999577,0.014334112,0.05456102,0.41286734,1.7881393e-07,0.010942221,3.3676624e-06
8.6426735e-07,1.4305115e-06,0.0021015406,0.99989974,0.004308909,0.0015822053,0.0051411986,8.940697e-08,0.04131171,0.000106453896
4.172325e-06,0.017594457,8.940697e-08,0.0021078885,0.0,9.5278025e-05,0.02098164,2.9802322e-08,0.38592973,4.3183565e-05
2.0861626e-06,3.516674e-06,0.9889562,0.9847303,0.0001052618,0.0009820461,0.0037769675,1.0728836e-06,0.000551641,5.349517e-05
0.9940183,0.0,1.6093254e-06,1.2218952e-06,2.9802322e-08,0.0014962554,0.0026969016,2.3245811e-06,0.00015097857,0.00017055869
0.002675116,0.0,7.838011e-06,2.3245811e-06,0.95905894,0.0010213256,0.0021816194,2.682209e-07,0.12434363,0.00013935566
7.4505806e-07,0.27817935,0.02903232,0.0031670332,5.9604645e-07,0.0010988116,0.08610174,7.748604e-07,0.99891347,0.000116199255
7.0929527e-06,0.0,3.5762787e-07,6.198883e-06,2.9802322e-08,0.00036492944,0.004434377,1.7881393e-07,0.99981946,0.0001296997
0.9616561,0.0,3.516674e-06,9.62615e-06,0.0,0.0021137595,0.0026348233,0.00705269,5.185604e-06,0.000106573105
0.984903,0.0,2.0563602e-06,5.4240227e-06,1.1920929e-07,0.0011260211,0.00070649385,3.5762787e-07,0.00030496716,0.0006060004
0.0,0.00030308962,0.00022667646,0.99997056,1.7493963e-05,0.000107079744,0.028759152,0.0,0.99547976,0.0
0.81400216,2.9802322e-08,7.265806e-05,8.6426735e-07,8.940697e-08,0.003175944,0.001470685,9.834766e-07,0.40754592,0.005744368
2.3335218e-05,1.013279e-06,0.99937195,0.004776001,5.841255e-06,0.0009893179,0.0038799047,1.5497208e-06,0.00015741587,1.0877848e-05
2.6196241e-05,6.3329935e-05,0.97929,0.00024715066,1.8179417e-06,0.001291126,0.00150913,1.4901161e-06,0.26300722,5.3972006e-05
0.95404255,0.0,3.0726194e-05,3.0100346e-06,4.4703484e-07,0.0013003349,0.0016142428,6.854534e-07,0.011911869,0.0003142953
0.00023365021,0.0,4.3570995e-05,4.172325e-07,7.1525574e-07,6.276369e-05,0.0009101331,3.0994415e-06,0.9982823,0.0002606213
0.07220131,0.0011584461,0.7151584,3.144145e-05,5.8710575e-06,0.01428774,0.06780386,0.00020855665,0.00778991,0.00045245886
1.5437603e-05,0.9991052,0.0006287992,0.02267468,8.9377165e-05,0.029249609,0.0028057098,2.3841858e-07,0.20117608,0.0012983382
0.9933399,0.0,3.0577183e-05,6.556511e-07,1.1920929e-07,0.0011487901,0.001685679,1.4901161e-06,0.0005928278,0.00017115474
0.9942409,0.0,1.1920929e-06,5.9604645e-07,0.0,0.0028575659,0.0039228797,5.662441e-07,0.00073853135,0.00014922023
0.044569552,1.1920929e-07,0.44809315,1.591444e-05,1.4722347e-05,0.0016833842,0.004116744,0.00014704466,0.6684003,0.0001335144
1.1920929e-07,2.8312206e-06,2.6226044e-06,0.9999994,6.5267086e-06,0.0004426241,0.009206325,0.0,0.07982221,1.4901161e-07
0.030585408,0.0,9.834766e-07,5.662441e-07,0.0,0.0013588071,0.0017558038,2.4437904e-06,0.9550874,7.3075294e-05
0.017523408,1.7881393e-07,1.4156103e-05,8.279085e-05,1.9669533e-06,0.001954794,0.013086915,6.470084e-05,0.987623,9.7602606e-05
2.8312206e-06,0.9986963,0.0015740097,0.02281639,8.940697e-07,0.02159226,0.0011689961,1.1920929e-07,0.89276445,0.00019609928
2.9802322e-07,0.0,1.5199184e-06,0.9999996,4.7385693e-06,0.00035098195,0.0052461326,0.0,0.0003978908,2.9802322e-08
0.9946165,0.0,6.854534e-07,0.0,0.0,0.00017347932,0.0012382269,0.00020670891,5.3346157e-05,4.813075e-05
0.99565613,0.0,2.3841858e-07,5.9604645e-08,0.0,0.0011903048,0.002229333,3.993511e-06,0.00021269917,5.1409006e-05
0.94677854,0.0,2.2351742e-06,3.2782555e-07,0.0,0.07853708,0.0015830696,5.662441e-07,3.6746264e-05,1.23381615e-05
0.005931735,9.62615e-06,0.00027558208,0.0005120039,1.1622906e-05,0.0039545596,0.02388686,0.000101059675,0.11156359,0.6094831
4.887581e-06,0.99072444,0.00016736984,0.001309216,1.1920929e-07,0.0011664331,0.0010309219,0.0,0.99855936,1.8686056e-05
5.632639e-06,0.00012862682,0.01330936,0.00047180057,0.003540486,0.9999783,0.027850121,0.0003450215,0.3653425,0.00013267994
0.99233174,0.0,1.1920929e-07,2.3245811e-06,0.0,0.0028621554,0.0019395053,1.1920929e-07,0.0013428628,7.241964e-05
1.0728836e-06,9.5933676e-05,0.94827527,0.00017663836,0.009291232,0.004284352,0.19131878,3.835559e-05,0.0024271905,0.018900365
0.10523352,4.053116e-06,0.015603125,5.453825e-06,3.0100346e-06,0.0012199581,0.006542474,0.0031802356,0.0011063814,0.47647536
3.2484531e-06,2.682209e-07,0.04148069,6.0260296e-05,0.69646686,4.670024e-05,0.0049775243,7.1525574e-07,0.9995923,3.0994415e-06
4.735589e-05,7.620454e-05,0.00010108948,0.00033673644,1.937151e-06,0.9995427,0.3015528,3.7163496e-05,0.016073644,6.8962574e-05
0.884688,7.4505806e-06,2.0682812e-05,2.3424625e-05,4.6789646e-06,0.002001375,0.0007067621,3.5762787e-07,0.16447711,0.0027918816
0.88477117,9.715557e-06,0.00013414025,3.874302e-07,2.9802322e-08,0.00022652745,0.0007674098,2.0563602e-06,9.6678734e-05,0.52577794
2.6643276e-05,0.9956485,0.00051012635,0.03296137,1.4036894e-05,0.007965714,0.011626154,1.7881393e-07,0.09972748,0.008496165
0.99222887,0.0,1.0728836e-06,5.662441e-07,0.0,0.003530413,0.0053159,8.7320805e-06,0.000110566616,7.0035458e-06
0.001406759,0.0,0.00014093518,1.4215708e-05,2.592802e-06,0.00029870868,0.004142314,3.415346e-05,0.99812317,1.0073185e-05
2.3841858e-07,6.943941e-06,1.0967255e-05,8.404255e-06,1.3709068e-06,0.0062533915,0.9621858,5.066395e-07,0.9141091,0.0043794215
0.99816656,0.0,1.4901161e-07,2.9802322e-08,0.0,0.00023758411,0.000628531,7.748604e-07,0.00019213557,1.6480684e-05
8.2969666e-05,9.387732e-06,0.0006183386,9.179115e-06,1.6093254e-06,0.9997269,0.0044771433,2.9176474e-05,0.12070644,0.00015878677
0.014260948,1.8775463e-06,0.9833516,2.0861626e-07,0.0,0.0011622906,0.006442815,0.0109514,0.00011828542,4.017353e-05
1.2099743e-05,1.7881393e-07,5.096197e-06,0.99999344,8.940697e-08,0.00025749207,0.00075760484,0.0,0.0008940995,8.940697e-08
0.09198028,2.682209e-07,0.0017533302,3.695488e-06,3.8146973e-06,0.0005451441,0.0017355084,0.030510664,0.0073314905,0.90691805
0.5343653,0.0,2.9802322e-07,1.6391277e-06,0.0,0.0003400445,0.0013150871,3.6656857e-06,0.8328997,1.9311905e-05
0.056286037,1.3798475e-05,2.4676323e-05,1.847744e-06,4.7683716e-07,0.00063052773,0.41289425,5.662441e-07,7.05719e-05,0.0033937395
0.012611598,0.0,2.2649765e-06,1.40070915e-05,2.9802322e-08,0.000721395,0.0020076334,2.3841858e-07,0.9964951,4.684925e-05
0.00023129582,0.9737952,0.002535522,0.0018341839,3.1799078e-05,0.0095407665,0.006539345,1.4901161e-07,0.038609594,0.009911805
0.99193466,0.0,2.682209e-07,7.0929527e-06,0.0,0.0023429692,0.0011929274,5.364418e-07,0.00075128675,0.00041419268
0.04234773,1.4901161e-06,4.813075e-05,8.85129e-06,5.9604645e-08,0.0005430579,0.0016139746,0.0,0.76292527,0.09911162
0.9940543,0.0,5.9604645e-08,2.9802322e-08,0.0,0.00052559376,0.0007070005,2.682209e-07,0.0008930564,0.00013247132
0.18747604,1.1920929e-07,0.91955394,1.1920929e-07,0.0,0.0002529621,0.0021640062,0.0002437532,5.570054e-05,2.1994114e-05
0.95323515,0.0,1.9073486e-06,4.887581e-06,5.4597855e-05,0.0013949275,0.0020465255,5.662441e-07,0.001596719,0.0052138865
0.98849916,0.0,2.3841858e-07,5.9604645e-08,5.9604645e-08,0.0006353557,0.0014338791,0.00017875433,4.6521425e-05,1.54078e-05
0.0018254817,0.00032699108,0.00012764335,0.00035610795,0.00064203143,0.004315138,0.9036161,3.6746264e-05,0.000153929,0.014969885
0.18483523,5.155802e-06,0.8459928,1.9967556e-06,2.1457672e-06,0.002319932,0.00398612,0.00010386109,0.0021018386,0.00048583746
0.9645791,0.0,5.9604645e-08,0.0,0.0,2.1159649e-05,0.00043344498,0.022411913,2.3245811e-06,6.6161156e-06
1.1920929e-07,1.1920929e-07,0.0003759265,0.00016313791,2.5063753e-05,0.9999982,0.003920257,5.1677227e-05,0.95064485,2.9802322e-06
2.9802322e-08,0.0,6.943941e-06,0.9999999,0.0008480549,0.00020849705,0.0036342144,2.9802322e-08,2.1994114e-05,2.9802322e-08
0.0059628785,0.0,8.910894e-06,6.556511e-07,1.1920929e-06,0.00016963482,0.001534313,1.1324883e-06,0.97392863,0.0002450943
0.9962001,0.0,1.2218952e-06,9.23872e-07,0.0,0.0013911426,0.0025034249,5.9604645e-08,0.0009738207,0.00021737814
4.5627356e-05,5.364418e-07,0.99116397,5.364418e-07,0.039848655,0.0002065897,0.0053913295,3.5762787e-07,0.00015497208,0.00011846423
0.0,3.2365322e-05,0.99573755,0.9952836,0.0003851354,0.0054899156,0.4840907,7.748604e-07,2.926588e-05,1.0728836e-06
0.9939998,2.9802322e-08,2.682209e-07,8.940697e-08,5.9604645e-08,0.00032791495,0.00086453557,2.3841858e-07,0.0029903054,0.001591891
1.1265278e-05,1.1920929e-07,0.00021615624,9.307265e-05,1.4901161e-07,5.477667e-05,0.010782927,0.0002989769,0.9998613,7.3611736e-06
1.0818243e-05,4.3988228e-05,1.3113022e-06,1.2725592e-05,1.0728836e-06,0.0088685155,0.9961239,1.3709068e-06,0.0016276538,0.0009005964
6.0111284e-05,4.723668e-05,0.9893617,0.00011587143,0.0011821389,0.0022343695,0.007903099,1.4901161e-07,0.31518918,0.0007624626
0.001281321,0.0,1.32620335e-05,7.122755e-06,2.682209e-07,0.00014871359,0.0014501512,6.070733e-05,0.9974971,2.861023e-06
3.5762787e-07,0.45088226,0.015180737,0.0015105307,0.00018775463,0.99368405,0.059591353,3.3974648e-06,0.1458438,0.00040137768
1.7881393e-07,5.9604645e-08,0.00010806322,0.99999726,2.7358532e-05,0.00017663836,0.017234415,1.1920929e-07,0.00011268258,0.00013417006
0.0,0.9834656,0.0039030015,0.99992454,3.796816e-05,0.03537917,0.052145183,0.0,0.0114424825,5.5730343e-06
0.5217059,8.940697e-08,4.2915344e-06,3.20971e-05,0.0,0.002611488,0.0016375184,0.0037374794,0.656736,0.00019362569
0.000726223,0.00014683604,0.0008223355,0.00052911043,3.823638e-05,0.9998807,0.006287366,0.001434952,0.052469224,5.1289797e-05
0.98689544,0.0,3.5464764e-06,3.5762787e-07,3.5762787e-07,0.000538677,0.001732111,5.841255e-06,0.0032784939,0.000130862
2.9802322e-08,8.651614e-05,0.97388285,0.00029233098,0.00068983436,0.9997659,0.014051497,4.1157007e-05,0.07122797,2.0623207e-05
0.0039631426,0.0,1.1920929e-06,7.104874e-05,2.9802322e-08,0.0025525093,0.0017891228,0.0002052486,0.98545945,2.0891428e-05
0.0,8.6426735e-07,7.122755e-06,0.9999985,0.12946814,0.000400275,0.00818342,9.804964e-06,0.000118643045,1.2516975e-06
0.00039556623,0.0,8.046627e-06,2.8908253e-06,1.4901161e-07,5.045533e-05,0.0018934906,1.4901161e-07,0.99978673,9.089708e-06
0.81908345,2.9802322e-08,9.208918e-06,3.093481e-05,5.9604645e-08,0.0011612773,0.0008972287,1.4424324e-05,0.0019285083,0.003981769
2.3841858e-07,8.940697e-08,1.1920929e-07,0.99999964,5.733967e-05,0.00048950315,0.0012488067,0.0,0.014073014,1.4901161e-07
0.98504114,0.0,3.1292439e-06,1.5199184e-06,2.9802322e-08,0.0014851987,0.0011676848,2.3841858e-07,0.0045599043,0.0004980564
3.5762787e-07,2.9802322e-08,0.0,0.0,0.0,0.0,1.4901161e-07,0.0,2.18153e-05,0.9999981
0.0,3.1799078e-05,3.9339066e-06,0.9999958,3.5762787e-07,0.0007161796,0.9835912,0.0,0.00013780594,2.9802322e-08
8.940697e-08,2.6524067e-06,0.00017720461,5.1289797e-05,0.061139345,0.9999983,0.017467558,0.0032750964,0.0006734729,5.1021576e-05
0.9862356,0.0,1.6391277e-06,2.9802322e-07,1.3411045e-06,0.03167796,0.00093346834,3.695488e-06,6.0349703e-05,6.4611435e-05
2.0861626e-07,2.3841858e-07,1.7881393e-07,0.0,0.0,0.0,2.0861626e-07,0.0,6.377697e-05,0.99994576
0.00047636032,5.9604645e-08,6.7949295e-06,6.535649e-05,0.000101685524,0.0009956658,0.031302452,4.4703484e-06,0.99710417,0.00012683868
0.0009075701,0.0,1.3411045e-06,5.00679e-06,1.1920929e-07,0.00014615059,0.0038928092,0.0,0.999286,1.6272068e-05
0.0030320287,0.0,5.364418e-07,8.34465e-07,0.0,0.00012221932,0.00034171343,2.0861626e-07,0.9947763,9.4383955e-05
0.0065810382,0.00016403198,1.859665e-05,1.9341707e-05,2.5629997e-06,0.0057919025,0.53630054,1.8894672e-05,0.0006636083,0.0013028979
0.061484903,8.940697e-08,0.00014960766,6.502867e-05,1.1026859e-06,0.0035670698,0.0057395995,0.7712328,0.00359717,0.00579226
0.14741668,0.00021708012,0.5990664,1.6391277e-06,2.3841858e-07,0.00080269575,0.001776278,0.0007933676,0.0007401407,0.014866322
0.0001014173,0.0,2.0861626e-07,2.2649765e-06,0.0,0.0004234016,0.0031764805,8.940697e-08,0.9995934,1.847744e-06
1.1652708e-05,0.99089706,0.010164708,0.001182735,2.5629997e-06,0.017681718,0.037888646,8.165836e-06,0.008939505,0.0034802258
6.854534e-07,4.1097403e-05,0.0025837421,0.999589,0.0074435174,0.002162367,0.010576874,0.0,0.08740601,2.9683113e-05
0.0017809868,3.990531e-05,0.0012748837,2.732873e-05,0.00012177229,0.00036889315,0.0018352866,0.0,0.18695912,0.6742301
0.26836115,0.0,2.682209e-07,0.0,0.0,7.289648e-05,0.0020464957,0.8847518,1.0311604e-05,9.4771385e-06
0.0,8.940697e-08,2.2411346e-05,0.99999785,0.0041675568,0.00010249019,0.00079390407,0.0,0.030682385,0.0
0.907832,2.0861626e-07,6.28531e-05,4.7683716e-07,1.1026859e-06,0.002082795,0.0037478209,7.5519085e-05,0.08512887,0.00040218234
0.9947896,0.0,3.8146973e-06,1.1920929e-06,5.9604645e-08,0.0005110502,0.0011736453,4.172325e-07,0.00010859966,4.61936e-06
0.99580157,0.0,1.1026859e-06,6.2584877e-07,0.0,0.0021342635,0.0013538897,6.5267086e-06,0.00043857098,0.000166744
0.9577254,0.0,7.4505806e-07,0.0,0.0,0.00024458766,0.0006657541,0.0,0.04959485,0.0011633635
2.9802322e-07,0.00084650517,0.36825186,0.005433351,0.089218765,0.12682992,0.011632919,1.3411045e-06,0.99819577,4.827976e-06
0.00015619397,2.026558e-06,0.0007402301,0.00038316846,9.834766e-07,0.99999344,0.0050847232,0.0018761456,0.00865683,8.404255e-06
0.9710083,2.9802322e-08,3.6358833e-06,2.6524067e-06,5.662441e-07,0.0019287467,0.0022853017,4.172325e-07,0.0024160445,0.0024607182
0.7924,0.0,1.2546778e-05,2.2053719e-06,1.4305115e-06,0.0006854534,0.0005687475,3.784895e-06,0.00046041608,0.30231673
0.9970485,0.0,1.4901161e-07,9.23872e-07,0.0,0.0011695623,0.0023141503,7.897615e-06,7.1793795e-05,6.875396e-05
1.1920929e-07,3.8444996e-06,1.9073486e-06,0.0,0.0,0.0,1.4305115e-06,0.0,2.682209e-07,0.9940801
2.5779009e-05,0.000395149,0.5626346,1.963973e-05,1.9073486e-06,0.0011653304,0.042601436,1.9133091e-05,0.99775404,5.7846308e-05
0.0021852255,4.7683716e-07,0.98566747,3.579259e-05,6.2584877e-07,0.00144732,0.0013946593,9.23872e-07,0.00073698163,0.00031483173
0.034492552,3.3080578e-05,0.00012111664,5.990267e-06,1.2367964e-05,0.007896036,0.3480307,0.00013321638,0.6070059,0.006437242
0.005254805,1.4901161e-07,5.9366226e-05,0.0006813407,0.742342,0.24131784,0.0016805828,2.2351742e-05,0.008629829,4.708767e-05
0.8917244,1.1920929e-07,9.655952e-06,1.0877848e-05,0.0,0.0018952489,0.0007329285,3.4421682e-05,0.01514864,0.021051705
0.0003193617,0.0,1.5795231e-06,0.99985737,1.1920929e-07,0.0002168417,0.00088861585,0.0,0.0013317764,1.937151e-06
8.940697e-08,1.3113022e-06,0.022162348,0.0005899668,0.033120036,0.0001707077,0.029560894,7.367134e-05,0.9997731,2.2053719e-05
0.9985404,0.0,2.9802322e-08,9.536743e-07,0.0,0.0005071461,0.0007211864,2.9802322e-08,0.00048580766,5.275011e-06
0.8172021,2.682209e-07,0.0007598698,5.272031e-05,5.9604645e-08,0.003243804,0.002556473,0.004283577,0.06144297,0.045837104
0.9781367,0.0,5.662441e-07,5.3942204e-06,1.7881393e-07,0.0015698671,0.001662463,1.1920929e-07,0.012160152,0.000103503466
1.347065e-05,0.0,1.4007092e-06,2.1457672e-06,9.834766e-07,6.943941e-06,0.00089395046,0.0,0.99997044,3.5762787e-07
1.2218952e-06,0.99565816,2.592802e-05,0.0035293996,1.9073486e-06,0.0003720522,0.0019503236,0.0,0.9991628,3.0100346e-06
0.9962558,1.7881393e-07,4.082918e-06,0.0,0.0,0.00021880865,0.000813365,0.0,5.6177378e-05,0.003030181
0.03875929,1.4007092e-06,0.9471056,2.5719404e-05,4.7683716e-07,0.0023510754,0.0031096935,3.0010939e-05,0.013533801,0.00013798475
4.172325e-07,3.874302e-07,7.930398e-05,0.9999682,0.017991573,0.0022460818,0.0015038252,0.0,0.011985272,2.3841858e-07
0.98881066,0.0,2.3841858e-07,1.1920929e-07,0.0,0.0002542138,0.00072169304,0.00077041984,6.0379505e-05,4.9471855e-06
6.765127e-06,5.9604645e-07,0.9994526,0.0012592971,0.0002643466,0.0015548766,0.002349317,1.013279e-06,0.029717177,0.00017046928
0.0003324449,0.00084993243,0.00020381808,0.0001540482,2.041459e-05,0.006528586,0.9798199,5.5015087e-05,0.27307323,0.0049750507
1.1026859e-06,3.9190054e-05,0.0012442172,8.285046e-06,2.7418137e-06,0.00017169118,0.0037851334,4.172325e-07,0.043525428,0.98837245
0.9815219,1.1920929e-07,2.0861626e-07,1.7881393e-07,5.9604645e-08,0.0018209517,0.008970648,2.2947788e-06,0.00092351437,0.0005442798
0.060534626,4.23193e-06,0.0017181039,4.172325e-06,7.748604e-07,0.40034968,0.035024792,9.924173e-06,0.00065276027,3.0368567e-05
6.2584877e-07,0.25625026,0.006609082,0.9985646,1.3381243e-05,0.015448898,0.025397241,2.9802322e-08,0.71796334,4.4345856e-05
6.7055225e-06,0.0005213022,0.0028876066,0.00042003393,3.3169985e-05,0.999974,0.049868226,6.970763e-05,0.06254104,0.0003748238
1.2993813e-05,5.662441e-07,0.95562845,0.00022891164,2.5480986e-05,7.119775e-05,0.0009342432,0.67815775,0.0010938942,0.000579685
4.479289e-05,0.0,0.00014263391,1.6659498e-05,4.3213367e-06,0.00026363134,0.0019678175,0.01693523,0.962963,0.0061332583
7.9602e-05,0.99651533,0.0013024807,0.006815642,1.8298626e-05,0.039118707,0.005811572,2.3841858e-07,0.031357646,0.003452152
0.0,7.212162e-06,0.99061143,0.9999278,0.00039440393,0.0002565086,0.004894316,0.0,0.9736664,0.0
1.090765e-05,5.9604645e-08,6.5237284e-05,2.1159649e-05,1.7881393e-07,9.6678734e-05,0.0021383762,0.0013673007,0.99603176,0.001470387
0.0,9.179115e-06,0.0004066825,0.9999529,0.6229156,0.5593931,0.116328925,1.1026859e-06,0.0013370216,5.9604645e-08
0.9685623,7.4505806e-07,0.0005621612,1.1920929e-06,2.3841858e-07,0.00086790323,0.0014295876,0.00084641576,0.0030255318,0.002960384
0.9932841,0.0,3.5762787e-07,4.3809414e-06,1.4901161e-07,0.0011707246,0.0012584329,7.4505806e-07,0.0001412034,3.8802624e-05
2.1845102e-05,9.3221664e-05,0.4927053,0.00028309226,8.589029e-05,0.9921347,0.013216943,0.02317968,0.003261149,0.0015656054
0.013019055,0.0,2.2053719e-06,6.2584877e-07,0.0,7.4863434e-05,0.00074386597,0.9992381,8.374453e-06,1.975894e-05
5.9604645e-08,1.1920929e-07,0.0003964305,9.402633e-05,0.00031095743,1.0,0.00046029687,0.0022929013,0.03778872,6.854534e-07
0.012795538,2.0861626e-07,0.00017347932,3.2812357e-05,2.9802322e-07,0.99604905,0.004103601,6.4373016e-06,0.0064715147,3.0308962e-05
5.9604645e-07,0.00023555756,0.005943358,0.0045337677,0.00028523803,0.99999917,0.009723455,0.0001360774,0.14055169,4.300475e-05
3.1024218e-05,4.172325e-07,0.005322993,3.516674e-06,0.00012892485,0.00054711103,0.0041674674,0.00020822883,0.14591137,0.8195758
6.556511e-06,4.7683716e-07,0.99987257,1.0579824e-05,0.0001320839,0.00057926774,0.004884869,0.00013247132,0.000433594,0.00025513768
1.5497208e-06,0.0,1.5497208e-06,0.99999726,2.0861626e-07,0.00013279915,0.003949225,1.1920929e-07,1.0699034e-05,1.1920929e-07
0.647326,0.0,0.00017020106,7.5399876e-06,9.018183e-05,0.0027599037,0.0009583235,6.2584877e-07,0.0051781833,0.07343292
0.99868363,0.0,8.940697e-08,8.940697e-08,0.0,0.0002605617,0.00028812885,2.682209e-07,2.0086765e-05,5.5998564e-05
0.030097306,1.3709068e-06,7.9602e-05,4.0978193e-05,4.157424e-05,0.9915484,0.0056078434,0.00030186772,0.063419044,0.0025794804
0.0014153719,1.7434359e-05,0.00019422174,2.1845102e-05,9.864569e-06,0.006728202,0.48916653,3.0368567e-05,0.030449778,0.0056689084
6.735325e-06,2.3514032e-05,0.9396993,0.00018894672,0.51704293,0.01950422,0.0008917451,9.5039606e-05,0.06374678,0.006137967
0.066758424,0.0,8.225441e-06,1.0728836e-06,2.0861626e-07,0.7391727,0.0105082095,0.00017410517,0.0029899776,4.6938658e-05
0.94988984,0.0,1.013279e-06,1.2516975e-06,5.364418e-07,0.0002809763,0.00050231814,1.9490719e-05,0.0012072921,0.0012227595
0.22131094,2.0593405e-05,0.002548337,2.0861626e-07,2.0861626e-07,0.00036922097,0.0033510923,9.0777874e-05,0.005727619,0.40847242
0.0012170076,1.4901161e-06,4.8935413e-05,0.0001745224,3.4064054e-05,0.24520719,0.011333317,0.00012651086,0.30488437,0.004773438
0.9528129,5.9604645e-08,6.29127e-05,1.9669533e-06,6.2584877e-06,0.0017261505,0.010493368,7.560849e-05,0.00054481626,0.0022349954
0.033496946,1.6987324e-06,2.1457672e-05,4.1514635e-05,2.5629997e-06,0.6733017,0.0061448216,7.56681e-05,0.10916269,0.02063638
0.9894093,0.0,1.1324883e-06,3.5762787e-07,0.0,0.00015500188,0.00067171454,0.0007467866,1.937151e-05,9.030104e-06
0.013535142,2.9206276e-06,7.4505806e-07,2.8014183e-05,0.0,7.212162e-05,0.0016762018,2.3841858e-07,0.99273324,5.6177378e-05
4.2289495e-05,6.201863e-05,0.9787369,1.1950731e-05,7.0929527e-06,0.9972831,0.0138973,0.00031265616,0.0032622516,1.835823e-05
0.9599285,2.9802322e-07,4.592538e-05,9.23872e-07,5.662441e-07,0.0024480522,0.004686922,1.3113022e-06,0.013183206,0.0011205673
2.3841858e-07,0.0016517639,3.424287e-05,0.9999306,0.0020333529,0.044289112,0.5745811,6.854534e-07,0.00073316693,2.7060509e-05
0.5222603,0.0,1.0728836e-06,4.7683716e-07,6.854534e-07,0.003957689,0.0006862581,0.00056248903,0.00061514974,0.0488362
4.440546e-06,3.874302e-07,1.2695789e-05,0.9999923,9.149313e-06,0.0002502799,0.0016317964,0.0,0.0015606284,2.732873e-05
0.9793898,4.4703484e-07,7.748604e-07,4.172325e-06,0.0,0.0017413497,0.0010196269,3.1590462e-06,0.023395956,0.00015851855
3.516674e-05,1.5795231e-06,2.4199486e-05,1.4841557e-05,4.1484833e-05,0.0005233586,0.007940382,1.2636185e-05,0.96685207,0.007324606
8.6426735e-07,0.00020164251,0.0026969314,0.00014185905,3.1739473e-05,0.9999968,0.0114187,0.0002117157,0.015381396,0.00016003847
8.940697e-08,4.4703484e-07,4.1753054e-05,0.99999774,0.00019654632,0.00019860268,0.014676273,2.7120113e-06,0.00079363585,6.5267086e-06
0.98799306,0.0,7.4505806e-06,7.3313713e-06,1.4901161e-07,0.00251019,0.0028285682,9.23872e-07,0.0020520687,0.0003270507
2.6583672e-05,0.0,3.1292439e-06,7.748604e-07,5.9604645e-08,3.6120415e-05,0.0018333793,8.940697e-08,0.999953,1.5497208e-06
0.01241383,6.2584877e-07,0.96030855,5.3048134e-06,3.0100346e-06,0.0017269254,0.009483427,5.0395727e-05,0.0018046498,0.00017982721
0.000310719,0.99878144,4.0322542e-05,0.00039303303,1.9073486e-06,0.0057848394,0.00041812658,2.9802322e-08,0.0076751113,9.75132e-05
0.993279,0.0,2.9802322e-07,5.9604645e-08,2.9802322e-08,0.0006079972,0.0006299019,8.6426735e-07,0.0007536113,6.5624714e-05
0.0005545616,8.940697e-08,7.045269e-05,4.7683716e-07,1.7881393e-07,9.5546246e-05,0.0049140453,3.1292439e-06,0.9997723,7.748604e-07
0.8466978,0.0,7.3611736e-06,3.874302e-07,3.2246113e-05,0.00073471665,0.0010911524,2.682209e-06,0.08591077,0.0002796054
0.0,0.0023640096,0.9465551,0.5313811,0.00011497736,0.005779624,0.3446055,2.5331974e-06,0.976799,1.0251999e-05
0.00627169,0.0,7.748604e-07,6.854534e-07,3.5762787e-07,7.110834e-05,0.0007902682,5.155802e-06,0.99146616,7.5399876e-06
0.98797405,0.0,1.3113022e-06,2.3841858e-07,2.3245811e-06,0.002639681,0.0021412373,3.963709e-06,0.0012049079,0.00039479136
0.9827976,0.0,3.2782555e-07,2.9802322e-08,0.0,6.586313e-05,0.00073456764,0.001974851,7.9512596e-05,7.2717667e-06
0.31589508,8.940697e-08,9.834766e-07,4.7683716e-07,8.940697e-08,0.0026982725,0.61596954,1.4007092e-06,0.00013047457,3.516674e-06
0.8751666,6.3180923e-06,1.0728836e-06,2.4318695e-05,0.0,0.0033468902,0.0029295087,4.172325e-07,0.27032667,0.0018261373
0.4701993,6.3180923e-06,0.0003452003,2.2143126e-05,1.6987324e-06,0.0017325282,0.0024060905,2.9802322e-07,0.4050254,0.008309871
2.8461218e-05,0.0,3.2782555e-07,5.9604645e-08,0.0,1.2993813e-05,0.0012604594,0.0,0.99977815,6.467104e-06
0.23918438,3.0398369e-06,4.6133995e-05,2.7120113e-06,6.4373016e-06,0.0019061863,0.22921133,0.00774467,0.0013663769,0.049296826
6.854534e-07,5.9604645e-08,0.005617529,2.1487474e-05,2.682209e-06,6.237626e-05,0.0037442148,1.5348196e-05,0.9999758,8.574128e-05
0.0,0.0,4.3213367e-06,0.99999726,0.9929099,9.3370676e-05,0.00029170513,0.0,0.026288867,0.0
0.9479058,0.0,8.761883e-06,2.9802322e-08,1.1920929e-07,0.00088712573,0.00052294135,0.0,0.0038214326,0.0067702234
0.38150686,5.9604645e-08,0.019097328,8.404255e-06,0.00013306737,0.005736947,0.0034979582,0.00017100573,0.1998435,0.0012794435
0.23622641,0.0,7.265806e-05,8.136034e-06,8.940697e-08,0.0006480515,0.0008995831,0.0004233122,0.3376192,0.0034920573
1.9133091e-05,1.5377998e-05,3.5762787e-07,1.5467405e-05,1.013279e-06,0.014333397,0.99592036,3.5762787e-07,0.012809545,0.0013832748
0.00012940168,0.0,4.4554472e-05,6.645918e-06,9.834766e-07,0.00026261806,0.0036892295,0.99775493,0.0025052428,0.00016245246
2.0861626e-07,2.5629997e-06,0.00013971329,0.9999839,1.8060207e-05,0.00046864152,0.008177698,9.983778e-06,0.00013378263,1.8447638e-05
2.4437904e-06,5.543232e-06,2.7269125e-05,0.00051757693,6.4074993e-06,0.93825364,0.89717937,1.937151e-06,0.029211372,0.0004953146
2.2053719e-06,5.057454e-05,0.040203393,0.0027522147,0.13093251,0.02493462,0.19505629,4.1425228e-05,0.99268997,0.000107616186
2.3961067e-05,2.9802322e-07,0.99968827,0.00011152029,9.030104e-06,0.00085270405,0.0020844042,6.854534e-07,0.05259186,6.467104e-06
2.95043e-06,0.0,2.6792288e-05,5.9604645e-07,0.0,2.4437904e-05,0.0021660626,2.4735928e-06,0.9999629,2.8192997e-05
0.9974748,0.0,3.5762787e-07,1.1920929e-07,0.0,0.00062167645,0.0011022687,2.2351742e-06,0.00018149614,1.40964985e-05
0.9295058,8.940697e-08,8.046627e-07,1.2844801e-05,0.0,0.0018496215,0.01737523,5.00679e-06,0.0029161274,0.00039315224
8.910894e-06,0.0,1.4901161e-07,0.99999285,2.413988e-06,0.00016376376,0.0001668036,5.9604645e-08,2.8014183e-06,4.172325e-07
5.930662e-06,2.9802322e-08,1.1712313e-05,0.999998,6.7055225e-06,0.00034332275,0.0045361817,8.940697e-08,2.5331974e-05,8.940697e-08
0.004593402,0.0,5.939603e-05,6.2584877e-07,6.556511e-07,8.073449e-05,0.003756255,4.145503e-05,0.98972297,1.3023615e-05
0.9926822,0.0,6.854534e-07,6.377697e-06,2.9802322e-08,0.001115948,0.00091540813,1.4901161e-07,0.0010025203,0.00036504865
0.9757476,1.1920929e-07,4.968047e-05,5.662441e-07,2.3841858e-07,0.0051317215,0.006655216,2.6166439e-05,0.0026833117,0.0003694594
0.15521699,2.2649765e-06,2.3841858e-07,5.3048134e-06,1.1920929e-07,0.0017243028,0.2429944,5.9604645e-08,0.0006285608,0.00049236417
5.4955482e-05,2.6524067e-05,0.00033858418,4.568696e-05,5.9366226e-05,0.007756293,0.96636724,0.00010791421,0.0006172061,0.0064181387
0.82699573,2.2649765e-06,6.258488e-05,2.0325184e-05,1.013279e-06,0.035541028,0.003685087,4.5895576e-06,0.106095165,0.00067162514
0.050120443,2.9802322e-08,5.364418e-07,9.536743e-07,1.4901161e-07,0.0027783513,0.8500651,5.9604645e-08,0.003928244,0.00013968349
1.40070915e-05,3.2782555e-07,0.00028640032,1.0728836e-06,2.4586916e-05,0.00036251545,0.004530698,3.2544136e-05,0.7646766,0.1895439
0.6455728,2.9802322e-08,3.606081e-06,3.1590462e-06,0.0,0.000639379,0.0012208223,7.748604e-05,0.770195,0.00012072921
4.4614077e-05,2.9802322e-08,1.5199184e-06,0.00014060736,2.9802322e-07,0.00013113022,0.009351224,2.9802322e-08,0.99985945,7.033348e-06
3.5762787e-07,0.9980631,0.00031775236,0.0011592507,2.682209e-07,0.0004374981,0.0018108785,0.0,0.99781096,1.4781952e-05
0.0014115572,0.0,1.1920929e-06,7.122755e-06,4.7683716e-07,0.0006252527,0.0027745664,2.0861626e-07,0.9924108,0.00047403574
8.735061e-05,1.3113022e-06,0.99713784,1.2755394e-05,7.4505806e-07,0.0011294782,0.0026203096,4.4703484e-07,0.3236776,2.6524067e-06
9.340048e-05,0.99662566,0.001943171,0.25595078,4.339218e-05,0.032016993,0.0005238652,1.66893e-06,0.043825775,0.0003824234
0.21528295,0.0,9.536743e-07,8.34465e-07,0.0,0.00030586123,0.0012769997,5.9604645e-08,0.88993526,0.0003401041
1.3411045e-06,0.99084073,0.00037398934,0.002031207,1.1920929e-07,0.002226323,0.008105397,2.9802322e-08,0.99660754,0.00018319488
2.5779009e-05,0.99614394,0.00033438206,0.05663222,9.381771e-05,0.0049186945,0.013504565,2.9802322e-08,0.74699175,0.0008934736
0.00028327107,0.21282065,0.45183188,0.0004913211,2.0325184e-05,0.0097332895,0.04415357,1.859665e-05,0.0016483068,0.023368686
2.0861626e-07,1.4305115e-06,0.0017104447,0.00045478344,8.4638596e-05,0.9999998,0.002617389,6.350875e-05,0.13967422,2.6494265e-05
2.413988e-06,0.81960315,0.012303352,0.00034567714,5.057454e-05,0.0029290617,0.32944137,0.00023928285,0.00020840764,0.0034523606
4.6491623e-06,1.5199184e-05,0.98627675,6.377697e-05,0.00019937754,0.00049203634,0.0011172891,2.6524067e-06,0.9714284,9.924173e-06
0.95550925,1.1920929e-07,4.929304e-05,0.0,5.9604645e-08,0.00040754676,0.00066274405,5.0842762e-05,4.9054623e-05,0.23159763
0.0,5.8710575e-06,0.0014005005,0.8825414,0.07526147,0.99999636,0.019307464,2.7865171e-05,0.04364878,1.2427568e-05
0.8713561,0.0,1.168251e-05,6.2584877e-07,8.583069e-05,0.00045007467,0.0012957156,2.3841858e-07,0.0028618872,0.0004326105
8.940697e-08,7.7456236e-05,5.8680773e-05,0.999998,0.00012215972,0.015797257,0.22287521,5.9604645e-08,0.0233019,7.748604e-07
0.096668094,0.0,8.821487e-06,1.335144e-05,8.940697e-08,0.0005737245,0.0012412965,0.96119994,4.643202e-05,0.0006442368
0.9309128,8.940697e-08,7.0393085e-05,5.543232e-06,0.0,0.0007301867,0.0005658865,0.022455275,0.0016666651,0.003093034
0.88263154,1.0728836e-06,0.00754869,4.053116e-06,3.3676624e-06,0.006503761,0.010692418,0.0055682063,0.0006380677,0.0022888482
0.9887756,0.0,7.4505806e-07,2.0861626e-06,0.0,0.0011723638,0.0011088252,5.9604645e-08,0.0024237037,0.0007120967
1.1920929e-07,3.8444996e-06,1.9073486e-06,0.0,0.0,0.0,1.4305115e-06,0.0,2.682209e-07,0.9940801
0.20587087,3.2186508e-06,1.1652708e-05,0.000117242336,3.606081e-06,0.0039043725,0.1878187,0.009263605,0.0041024387,0.0005569756
0.00018787384,0.0,5.155802e-06,2.2381544e-05,3.33786e-06,0.00012424588,0.0049400628,7.748604e-07,0.99974835,1.8179417e-06
0.0,1.1861324e-05,0.0013973415,0.9999577,0.016378522,0.00020292401,0.021686494,6.854534e-07,0.0019022524,0.00010636449
0.006438315,0.0,0.00026255846,7.748604e-07,0.0053688884,0.0019234419,0.0031627715,4.851818e-05,0.18637729,0.18601424
5.9604645e-08,0.00087580085,0.0009830296,0.99929655,0.0035538673,0.00218302,0.016111434,3.8146973e-06,0.15251648,4.2438507e-05
5.3942204e-06,0.0,1.6123056e-05,1.564622e-05,2.3841858e-06,0.00011527538,0.0058987737,1.1920929e-07,0.99997294,8.34465e-07
0.99518996,0.0,2.9802322e-07,2.9802322e-08,0.0,0.00088500977,0.0012758672,1.7881393e-07,0.0016369224,6.7323446e-05
0.65652853,1.7881393e-06,0.0006638169,0.00020974874,9.23872e-07,0.016729146,0.026290387,0.00012990832,0.00018078089,0.0003193617
0.99583995,0.0,1.4901161e-06,2.0861626e-07,8.940697e-08,0.00113374,0.0010126829,3.4421682e-05,8.800626e-05,0.0025483966
0.0,6.6548586e-05,0.002652347,0.9993048,0.7929197,0.99942374,0.17847946,1.3113022e-06,0.035720408,5.9604645e-08
0.09168711,2.2351742e-06,0.105986506,2.3841858e-07,2.9802322e-08,0.00062701106,0.002337128,0.008053899,0.00080898404,0.0034939349
5.275011e-06,0.0,1.1026859e-06,0.99999845,5.275011e-06,0.000105947256,0.00038954616,0.0,2.592802e-06,2.682209e-07
0.043653876,1.2427568e-05,2.9802322e-08,5.066395e-07,0.0,0.0013738275,0.9593246,8.940697e-07,0.0003771782,0.00017115474
0.057989955,0.0,7.748604e-07,0.0,0.0,0.00027668476,0.0013629496,0.98359597,2.2232533e-05,5.763769e-05
3.874302e-07,0.0,8.314848e-06,0.9999996,0.001583755,0.00030356646,0.0019848645,2.9802322e-08,0.0047191978,2.9802322e-08
3.0726194e-05,0.4809841,0.0026116073,0.00075137615,4.7683716e-07,0.014384419,0.08980268,7.4505806e-07,0.8834332,0.005667895
0.0,0.0,0.00012341142,9.119511e-06,0.0,5.662441e-07,2.8908253e-06,6.854534e-07,4.23491e-05,0.99999934
2.682209e-06,1.1920929e-06,0.00013235211,1.50203705e-05,1.1920929e-07,3.9219856e-05,0.0009939969,6.2584877e-07,0.101233244,0.99245656
0.77416825,0.0,3.2782555e-07,6.2584877e-07,1.4901161e-07,0.0003055036,0.0014843643,2.0861626e-07,0.471544,1.0460615e-05
8.85129e-06,7.4505806e-07,0.00031420588,2.5063753e-05,0.00022494793,0.99999905,0.00581795,8.863211e-05,0.11108348,5.787611e-05
1.4901161e-07,1.1920929e-07,4.2676926e-05,0.9999876,0.9965527,0.00049716234,0.0022653341,1.7881393e-07,0.00382936,1.4901161e-07
0.06895009,0.0,7.748604e-07,3.606081e-06,0.0,7.545948e-05,0.0003077984,0.98376846,1.9431114e-05,0.00015085936
0.0018570721,2.9802322e-08,5.155802e-06,5.364418e-07,2.9802322e-08,0.00068327785,0.0077572763,2.3841858e-07,0.99760497,4.976988e-05
0.9965954,0.0,2.9802322e-07,4.7683716e-07,0.0,0.0011070669,0.0021857321,2.6226044e-06,2.4795532e-05,0.00010839105
0.3334821,0.0,1.1920929e-06,0.00055250525,8.34465e-07,0.00031334162,0.00039979815,0.17572898,0.0020344853,0.0011805892
3.0219555e-05,3.5762787e-07,0.99981785,0.00020134449,0.0011176169,0.0016634464,0.005920589,1.5497208e-06,0.0046970844,1.1593103e-05
7.0631504e-05,0.0,6.1690807e-06,1.1026859e-06,1.7881393e-07,6.67572e-05,0.001368612,1.4007092e-06,0.99994177,5.662441e-07
5.581975e-05,0.00018897653,7.033348e-06,7.086992e-05,4.1127205e-06,0.01508075,0.98030424,3.5762787e-07,0.14443153,0.004544854
0.0069617927,2.9802322e-08,4.4494867e-05,8.583069e-06,0.0,0.00039216876,0.0016963184,5.725026e-05,0.96552837,0.0044355392
3.1888485e-06,5.6892633e-05,0.0036245286,0.00012919307,9.173155e-05,0.9999992,0.0059085786,0.0022312403,0.03615439,0.00030124187
0.9801848,0.0,3.6358833e-06,4.4703484e-07,2.0861626e-07,0.00039759278,0.0006964803,0.0025827885,0.0021802485,0.00026246905
0.9813794,2.9802322e-08,6.0796738e-06,1.4603138e-06,1.4901161e-07,0.0011609793,0.007242769,0.0001591146,0.0007236898,0.0001655221
0.0020137727,4.211068e-05,0.00067454576,1.14142895e-05,2.5331974e-06,0.00033652782,0.0032934844,2.3841858e-07,0.99654305,0.002014935
0.0012665093,1.4305115e-06,8.940697e-08,5.9604645e-08,0.0,0.0005633831,0.9989041,8.940697e-08,2.1994114e-05,2.193451e-05
0.9980868,0.0,2.9802322e-07,0.0,0.0,0.00017651916,0.00069096684,4.4703484e-07,7.095933e-05,4.196167e-05
9.298325e-06,1.4901161e-07,1.180172e-05,0.9999931,2.3841858e-07,0.00028783083,0.0062195063,4.172325e-07,6.225705e-05,1.2814999e-06
0.00037953258,0.0,1.4901161e-07,3.2484531e-06,0.0,5.698204e-05,0.000120818615,0.99982464,3.3020973e-05,5.7816505e-06
0.00020357966,0.0,1.3202429e-05,1.1920929e-06,5.9604645e-08,0.00012859702,0.001837641,0.0,0.99976283,1.2457371e-05
0.3484468,1.5079975e-05,0.00011020899,1.2218952e-06,2.9802322e-08,0.0014433861,0.004951149,6.2584877e-07,0.7199585,0.00080022216
7.1525574e-06,0.0,4.7683716e-07,2.7418137e-06,0.0,3.8176775e-05,0.0003822744,0.999966,4.7057867e-05,3.540516e-05
0.00011396408,0.00011792779,3.9845705e-05,3.7252903e-06,9.298325e-06,0.0048719645,0.9728968,1.2874603e-05,0.0037741363,0.00927332
0.00067457557,0.0,0.0013027191,3.4034252e-05,9.834766e-07,0.00053185225,0.005641818,0.00021278858,0.99603784,0.00030240417
4.7683716e-07,0.0,0.0,4.172325e-07,2.0861626e-07,2.9802322e-08,8.821487e-06,0.0,4.6491623e-06,0.99996626
1.5199184e-06,0.00016713142,0.00058469176,0.0008985698,5.6028366e-06,0.0007223785,0.03250912,8.940697e-08,0.9889538,0.0008213222
0.004388869,5.9604645e-08,1.2069941e-05,1.603365e-05,2.682209e-07,0.00022861362,0.0027163923,3.8594007e-05,0.9947432,0.00022956729
1.9282103e-05,1.2874603e-05,0.00019198656,0.0001322329,3.120303e-05,0.9999827,0.0054816008,0.00026109815,0.0092841685,0.00039869547
0.9989318,0.0,2.3841858e-07,2.9802322e-08,0.0,0.0005016029,0.0012205839,4.172325e-07,5.2571297e-05,4.786253e-05
0.992267,0.0,8.940697e-08,1.0281801e-05,0.0,0.0011116564,0.00074774027,4.172325e-07,0.002262324,0.00026512146
0.9943483,0.0,4.7683716e-07,0.0,0.0,0.00013050437,0.00048354268,7.95424e-05,0.00087565184,3.1739473e-05
0.98764163,0.0,6.0260296e-05,1.7285347e-06,1.7881393e-07,0.0021148622,0.00096711516,0.0003053248,0.0002027452,0.0002616644
1.9490719e-05,0.0,1.3411045e-06,4.529953e-06,2.0861626e-07,4.094839e-05,0.002122134,8.940697e-08,0.9999471,1.1622906e-06
0.99742055,1.1920929e-07,1.937151e-06,8.940697e-08,0.0,0.00049576163,0.0015908182,3.5762787e-07,7.915497e-05,0.0005925596
0.0004647076,1.6093254e-06,0.0001733005,8.1151724e-05,0.00013548136,0.9998471,0.010344416,6.2286854e-06,0.011199534,4.1157007e-05
0.4213619,2.3841858e-07,5.751848e-06,7.855892e-05,0.0,0.0031173527,0.0014283657,1.4901161e-07,0.7659984,0.00016593933
0.40518585,0.0,7.599592e-06,1.4901161e-06,0.0,0.00030866265,0.00096559525,0.8949013,2.8133392e-05,0.002344519
0.0040810704,0.97487724,0.0026307702,0.00018650293,4.7683716e-07,0.0055637658,0.0014126599,3.874302e-07,0.008382648,0.0085424185
3.5464764e-05,0.9991171,0.010137737,0.007630378,9.5933676e-05,0.027005434,0.0010387003,6.660819e-05,0.107635826,0.0017538369
0.99814904,0.0,1.4901161e-07,0.0,0.0,0.00027036667,0.000364393,2.1457672e-06,1.2457371e-05,0.00030717254
0.0001604557,1.8924475e-05,0.0011577308,0.0027029216,0.0017347038,0.9994546,0.012261093,8.761883e-06,0.09597236,8.901954e-05
0.99900067,0.0,1.1920929e-07,0.0,0.0,0.00011923909,0.00044080615,0.0,0.00014799833,9.828806e-05
3.2782555e-07,0.0,2.69413e-05,0.9999826,0.29833576,0.0010910332,0.0031636357,0.0,0.2669627,2.9802322e-08
0.0001540184,2.9802322e-08,0.00014406443,6.815791e-05,5.185604e-06,0.00020375848,0.008262664,2.9206276e-06,0.9997895,5.841255e-06
0.9550998,0.0,1.7881393e-07,8.940697e-08,0.0,6.517768e-05,0.00056895614,0.017718136,8.7976456e-05,0.003335029
0.0029054582,0.0,1.6629696e-05,0.00011655688,2.95043e-06,0.0005861521,0.0036238432,8.6426735e-06,0.9902384,0.00012719631
0.9957423,0.0,9.834766e-07,5.662441e-07,8.940697e-08,0.0013289452,0.0009509921,7.4505806e-07,0.00010314584,0.0011845827
0.00042924285,2.9802322e-08,0.0061638653,0.000101447105,0.00011506677,0.00024676323,0.0030870736,5.5134296e-06,0.99889976,8.72314e-05
8.493662e-06,2.9802322e-08,3.9041042e-06,0.9999242,1.4007092e-06,0.00041356683,0.0021614134,0.0,0.2047736,6.8843365e-06
0.9840996,1.5795231e-06,4.0233135e-06,2.9802322e-07,5.9604645e-08,0.0009928048,0.0035651922,9.834766e-07,0.0006278753,0.0047385097
0.018545926,0.0,1.2516975e-06,4.172325e-06,3.2782555e-07,0.00034719706,0.0017103851,1.4901161e-07,0.993376,6.4611435e-05
4.142523e-06,4.827976e-06,0.0006045997,0.0001000762,6.2584877e-07,0.99999934,0.016623199,6.753206e-05,0.0061476827,7.748604e-07
0.8503495,0.0,4.976988e-06,6.8962574e-05,1.1920929e-06,0.0013403296,0.00094363093,2.682209e-07,0.15597805,0.0001205802
0.0023199618,2.026558e-06,0.00028839707,1.66893e-05,4.172325e-07,0.0008094311,0.007368237,1.4901161e-07,0.9973077,0.00021591783
7.3611736e-06,0.0,2.9802322e-06,0.99992895,0.0,0.00027784705,0.0015847683,4.926324e-05,6.7055225e-05,2.682209e-07
0.7597704,0.0,5.9604645e-07,1.4305115e-06,2.682209e-07,0.0008857548,0.00066387653,0.007113993,0.012944698,0.00012922287
5.9604645e-08,1.2099743e-05,0.00019788742,0.99996877,0.0002220273,0.00045746565,0.13815272,1.3113022e-06,7.2062016e-05,1.1920929e-05
0.0,2.9802322e-08,9.834766e-07,0.99999976,0.00011307001,0.00017902255,0.0036320388,0.0,0.008747101,8.940697e-08
0.00013020635,1.7285347e-06,3.4570694e-06,1.3679266e-05,2.3841858e-07,0.004013449,0.88596225,0.24598122,0.00045752525,5.635619e-05
5.1259995e-05,2.0861626e-07,4.348159e-05,2.1457672e-06,1.6391277e-06,0.00011101365,0.00095164776,9.298325e-06,0.056521863,0.97797894
3.5762787e-07,0.0,1.8805265e-05,0.9999919,0.0060923696,0.00022050738,0.0019366145,2.9802322e-08,0.0023542643,1.66893e-06
0.11998582,2.7120113e-06,3.427267e-06,0.000312984,4.172325e-07,0.0014680624,0.0017428994,4.7683716e-07,0.95002806,0.00018554926
5.9604645e-08,0.99942225,3.8683414e-05,0.6686575,1.847744e-06,0.0020606518,0.0002823472,0.0,0.9944686,2.682209e-06
8.34465e-07,5.9604645e-08,2.5331974e-06,0.99999845,2.0325184e-05,0.00020599365,0.0007252693,0.0,1.719594e-05,4.4703484e-07
0.004751265,0.0,1.4305115e-05,5.6624413e-06,4.4703484e-07,0.00021731853,0.0004259348,3.2782555e-07,0.5115334,0.61846286
0.0,5.9604645e-08,2.5242567e-05,0.99999875,0.001162678,9.4503164e-05,0.0010301769,7.688999e-06,5.4478645e-05,2.4735928e-06
0.0001142025,1.8179417e-06,1.9073486e-06,1.7881393e-07,8.34465e-07,0.004964471,0.8955449,2.9802322e-08,0.8225012,0.004456848
0.00028023124,2.3841858e-07,0.9965018,5.00381e-05,0.0013378859,0.0010982156,0.0045060515,3.874302e-07,0.01992929,0.00014179945
0.9908452,0.0,2.682209e-07,2.9802322e-07,0.0,0.00095418096,0.0007542372,0.00017181039,0.00014173985,5.468726e-05
0.9640928,2.9802322e-07,3.6358833e-06,9.5665455e-06,0.0,0.0011950433,0.0015926063,2.413988e-06,0.13900709,0.00012180209
0.00081187487,3.3080578e-06,0.002125591,0.00045731664,1.0699034e-05,0.9963875,0.0036346614,0.0053180754,0.0010196567,9.74834e-05
8.940697e-08,1.052022e-05,5.90086e-06,0.0,0.0,1.1920929e-07,1.1622906e-06,2.9802322e-08,4.7683716e-07,0.99827975
0.9982406,0.0,2.3841858e-07,0.0,0.0,0.00034499168,0.00095936656,1.013279e-06,0.00015607476,2.4735928e-06
2.297759e-05,0.0,6.556511e-07,5.2452087e-06,2.9802322e-08,0.00043401122,0.0034011602,2.9802322e-08,0.9999188,2.9802322e-07
0.9569341,2.9802322e-08,5.0216913e-05,3.6776066e-05,4.3153763e-05,0.002437681,0.0013133883,2.8312206e-06,0.0013056695,0.004855782
0.9821187,0.0,2.0861626e-07,6.2584877e-07,0.0,0.00044226646,0.00077065825,2.0861626e-07,0.028535962,2.7269125e-05
0.00018307567,0.0005401671,8.046627e-07,7.033348e-06,1.3113022e-06,0.0022807121,0.9983146,2.9802322e-08,0.04460883,0.0012149215
0.2354531,2.0861626e-07,0.7240128,7.1525574e-07,1.0251999e-05,0.0023619235,0.017945945,0.0003325343,0.00048962235,0.00030833483
0.9864947,0.0,1.6838312e-05,0.0,2.3841858e-07,0.00034368038,0.0010016263,0.0004504025,8.067489e-05,0.00035962462
7.799268e-05,2.9802322e-07,0.0010620952,1.13248825e-05,0.0151788,0.0017744303,0.0069665015,0.0005122125,0.0008226335,0.60264456
2.1606684e-05,0.95919895,0.00050744414,0.001645118,1.41859055e-05,0.016859323,0.016982287,8.940697e-08,0.32903785,0.06343776
0.9759319,1.4901161e-07,1.7344952e-05,2.3841858e-07,2.0861626e-07,0.0008407831,0.0010377169,1.8775463e-06,0.00052523613,0.04773572
1.0728836e-06,1.66893e-06,6.774068e-05,0.99996746,0.00888592,0.0003465712,0.005108267,5.9604645e-08,0.5107453,4.172325e-07
0.031743973,0.0,0.8935964,2.3841858e-07,0.0005813241,0.0022011101,0.0034852326,0.00012934208,0.021956474,7.933378e-05
0.012469083,0.0,5.185604e-06,1.9669533e-06,2.9802322e-08,0.0004682243,0.0011026561,2.4735928e-06,0.97149086,0.0012733042
0.0,0.0002809167,0.9219345,0.9965031,1.5199184e-05,0.00012165308,0.034501344,0.0,0.9994638,0.0
0.857041,0.0,9.137392e-05,1.0848045e-05,3.5762787e-07,0.00038433075,0.000533551,0.13168895,0.00010642409,0.005451381
8.404255e-06,1.4305115e-06,0.9722218,8.612871e-06,3.3080578e-05,0.0004530549,0.021850616,5.155802e-06,0.9939953,1.3589859e-05
0.96608996,0.0,2.4735928e-06,1.4901161e-07,7.95722e-06,0.0013764799,0.0014155209,6.854534e-07,0.0026937127,0.0010541081
0.0,0.00021699071,0.0002874732,0.99982196,0.00013241172,0.0010106862,0.021333694,6.4074993e-06,0.9626457,1.7881393e-07
5.90086e-06,0.0,1.6093254e-06,0.9999982,5.9604645e-08,0.00016963482,0.0010971427,4.172325e-07,1.21593475e-05,1.7881393e-07
0.00011250377,9.286404e-05,0.000782907,1.2606382e-05,2.3841858e-07,0.0002808869,0.038348973,1.4901161e-07,0.9993492,3.385544e-05
2.9802322e-08,0.984535,0.0042620003,0.9995046,0.037108064,0.2354241,0.003524065,1.1920929e-07,0.0036670566,2.2351742e-06
0.872794,0.0,5.3048134e-06,3.388524e-05,6.2584877e-07,0.007657528,0.0012589097,0.0013699234,0.0011755228,0.006356597
9.864569e-06,0.97768545,0.0019901097,0.002500832,2.7120113e-06,0.0044885874,0.022253782,8.940697e-08,0.91677666,0.002582252
0.99882877,0.0,8.940697e-08,1.1920929e-07,0.0,0.00073742867,0.00081050396,5.9604645e-08,8.8214874e-05,1.2606382e-05
0.0001706481,0.0,0.00010553002,5.2154064e-06,1.1324883e-06,7.674098e-05,0.002533555,2.0742416e-05,0.99959195,1.9967556e-06
7.215142e-05,3.3825636e-05,0.005427599,2.2292137e-05,2.3841858e-07,0.00021743774,0.005810648,5.453825e-06,0.99933076,0.00049462914
4.7683716e-06,0.9922171,0.00036337972,0.901049,0.0004978776,0.018980145,0.001109451,0.0,0.43191415,0.00023457408
0.7227868,0.0,9.23872e-07,9.655952e-06,5.9604645e-08,0.0010969043,0.00060305,5.0663948e-05,0.27234536,0.0002721846
1.1920929e-07,3.8146973e-06,0.0011975169,0.03709033,0.0014275014,1.0,0.007936507,0.00015640259,0.0378792,2.8014183e-06
0.95638967,0.0,1.6093254e-06,1.4901161e-07,2.0861626e-07,0.00042906404,0.0003681481,0.0026147366,5.325675e-05,0.0059616566
2.1457672e-06,0.0,1.4305115e-05,1.4334917e-05,8.940697e-08,0.00010493398,0.0033578575,0.055915087,0.99838746,9.536743e-06
4.339218e-05,0.956571,0.010694116,0.014975548,5.2452087e-06,0.00614962,0.019447386,2.9802322e-07,0.97796583,0.0016893148
0.9915475,0.0,4.0203333e-05,2.9802322e-08,0.0,0.0007074177,0.0010592937,3.2782555e-06,9.5158815e-05,0.006934941
0.00012633204,0.0008969903,0.0012636185,0.0005581677,1.8566847e-05,0.99108946,0.082417846,6.4074993e-06,0.39457244,0.0010654628
8.821487e-06,0.0,7.921457e-05,5.930662e-06,2.9802322e-08,7.593632e-05,0.0027000606,2.9802322e-07,0.9999758,3.4570694e-06
7.021427e-05,0.96725,0.001820296,0.36480507,0.00021731853,0.01950857,0.0019837022,6.198883e-06,0.70389885,0.0022245646
3.2782555e-06,0.00014439225,0.0002477765,0.18519709,0.0023362935,0.9975692,0.053958625,0.0003234446,0.011663765,0.0011328161
1.1354685e-05,7.4505806e-07,9.23574e-05,4.5001507e-06,1.2367964e-05,9.050965e-05,0.0018384755,0.009109288,0.015414834,0.94748354
0.0034786463,3.9190054e-05,0.0011695027,0.89143467,1.6897917e-05,0.0015182197,0.00346604,9.804964e-06,0.79320204,0.0003017187
2.8312206e-05,0.0,2.6971102e-05,5.3346157e-06,8.940697e-08,0.00015258789,0.003076017,2.413988e-06,0.99991417,2.8401613e-05
2.6524067e-06,0.0,0.00013655424,8.583069e-06,1.0728836e-06,4.091859e-05,0.0040173233,2.69413e-05,0.9999536,9.357929e-06
4.5597553e-06,2.9802322e-08,2.3543835e-05,0.99999774,8.940697e-08,0.00033578277,0.0045882463,1.1920929e-07,0.0011712015,3.5762787e-07
8.5026026e-05,1.3709068e-06,0.0054703355,3.2424927e-05,0.00029963255,0.99984086,0.004827678,0.00025516748,0.09541458,0.0011218786
6.070733e-05,3.4570694e-06,0.9963606,8.821487e-06,4.848838e-05,0.0021710098,0.0051869154,1.0728836e-06,0.44880238,1.7672777e-05
0.83580697,1.4901161e-07,7.2717667e-06,8.34465e-07,4.172325e-07,0.00062942505,0.0011930466,0.00020682812,0.014345765,0.04922524
8.121133e-05,0.0003283322,2.2649765e-06,8.34465e-07,2.682209e-07,0.015707403,0.9694013,1.6391277e-06,0.0005887747,0.001365155
0.994668,0.0,3.5762787e-07,5.9604645e-08,8.940697e-08,0.0010586977,0.00080794096,5.364418e-07,0.0005476177,0.00071436167
3.0696392e-06,2.9802322e-08,4.7683716e-07,0.9999937,1.7881393e-07,0.00090938807,0.004782021,8.940697e-08,0.0031462312,0.0
0.0064569116,4.5895576e-06,0.00018399954,4.0203333e-05,8.493662e-06,0.0018135607,0.23278496,4.2378902e-05,0.008310348,0.5424421
3.132224e-05,0.0,7.688999e-06,1.847744e-05,8.940697e-08,0.00013712049,0.0042688847,5.9604645e-07,0.99996006,7.4505806e-07
0.009788573,8.940697e-08,1.6093254e-06,3.6358833e-06,2.9802322e-08,0.0005645752,0.0015974641,2.9802322e-08,0.95692,0.021741122
5.9604645e-08,0.026867837,0.47769484,0.9928229,0.001383692,0.0011199117,0.11472994,1.4901161e-07,0.9898081,2.9802322e-06
0.99771637,0.0,1.1920929e-07,1.4901161e-07,0.0,0.00034618378,0.0012638271,2.3245811e-06,4.515052e-05,6.341934e-05
0.9771861,1.4901161e-07,1.2218952e-05,2.0861626e-07,1.1920929e-07,0.0033227801,0.010116607,3.8444996e-06,0.0015400052,0.0016979575
0.97463346,0.0,4.7683716e-07,8.702278e-06,0.0,0.0020126998,0.00250116,1.1622906e-06,0.003277719,0.0004631877
0.0012254417,2.9802322e-08,4.351139e-06,1.5795231e-06,3.59118e-05,0.000118523836,0.0075181127,2.9802322e-08,0.9983815,4.5210123e-05
0.5178484,2.9802322e-08,1.385808e-05,3.0398369e-06,4.1127205e-06,0.0011359751,0.0050016344,1.66893e-06,0.7805135,0.00032943487
0.000598222,0.0,1.0311604e-05,6.377697e-06,1.4901161e-07,0.00012046099,0.0019033551,0.9980652,0.00032436848,0.0003722012
0.9971486,0.0,1.0430813e-06,1.0728836e-06,0.0,0.0011456907,0.0011969805,9.23872e-07,0.00022137165,6.407499e-05
1.2516975e-06,0.00038045645,0.9676652,0.09008896,0.0031668842,0.99574316,0.019213796,7.247925e-05,0.31025547,9.75728e-05
0.38570124,0.0,4.4703484e-07,1.4901161e-06,8.940697e-08,0.00023823977,0.0008209646,2.2053719e-06,0.72273684,0.00014442205
0.7416583,2.592802e-06,0.0046396255,2.3841858e-05,4.1395426e-05,0.0010554194,0.00535506,3.6597252e-05,0.040053993,0.0024633408
0.004188627,8.940697e-08,0.000672102,7.390976e-06,0.0011337698,0.0006747544,0.0037060082,3.1292439e-06,0.97959244,0.00057041645
6.54459e-05,1.7881393e-07,1.0162592e-05,8.034706e-05,8.940697e-08,0.00015842915,0.0043399036,2.6226044e-06,0.99973553,4.9889088e-05
0.008021891,2.0861626e-07,2.7120113e-06,1.4841557e-05,0.000138551,0.0021010041,0.6852491,3.33786e-06,0.00023978949,3.46601e-05
0.006251931,0.0,5.9604645e-06,1.7881393e-07,8.940697e-08,0.0005198717,0.0034982562,1.7881393e-07,0.9976696,4.2527914e-05
0.9825841,0.0,3.874302e-06,5.7816505e-06,2.9802322e-08,0.0008172691,0.0004594326,4.8577785e-06,0.00011873245,0.0027847588
0.98743653,0.0,2.8312206e-06,5.9604645e-07,2.0861626e-07,0.001290977,0.0010733306,5.438924e-05,0.00013041496,0.008497536
0.0012044013,0.0,1.1920929e-07,1.4901161e-07,2.3841858e-07,0.00066670775,0.003972769,0.99355483,0.00010898709,0.0007278323
0.0002937615,1.8775463e-06,1.2397766e-05,0.00028404593,4.61936e-06,0.9993596,0.0074786246,7.933378e-05,0.00010943413,9.0539455e-05
0.00051775575,1.1622906e-06,0.0002631545,2.2917986e-05,4.172325e-07,0.00069093704,0.024732769,0.00073421,0.9974586,2.9295683e-05
0.0020447671,1.847744e-06,0.00022795796,8.791685e-06,1.9431114e-05,0.00021973252,0.0047412217,1.0430813e-06,0.9972166,0.00028339028
3.5762787e-07,1.5258789e-05,0.9678187,1.937151e-05,4.5001507e-06,0.0006907582,0.015304834,1.4901161e-07,0.9983039,1.66893e-06
0.0,5.9187412e-05,1.12354755e-05,0.99889123,2.6524067e-06,0.005602807,0.24156877,5.9604645e-08,0.9449885,4.261732e-06
1.7881393e-07,0.0,5.9604645e-08,0.0,0.0,0.0,1.6093254e-06,0.0,5.9604645e-08,1.0
0.09403524,1.1920929e-07,0.0013608038,7.4505806e-06,0.0006784797,0.0007350743,0.00638929,8.076429e-06,0.8539042,0.00151214
0.033726335,9.23872e-07,0.0008457005,7.733703e-05,4.5865774e-05,0.0021929145,0.013332695,0.00024408102,0.04602483,0.060795933
0.993713,0.0,1.4603138e-06,1.7881393e-07,8.940697e-08,0.00025093555,0.0015962422,8.21352e-05,5.093217e-05,0.00022858381
0.97013193,0.0,1.6987324e-06,8.34465e-07,2.682209e-07,0.00041344762,0.0014823079,0.000143677,0.00081565976,0.003345549
0.0002283454,0.64322287,0.011418909,0.0010996461,0.0005315244,0.061219513,0.14921755,0.00018009543,0.12656802,0.16289416
6.452203e-05,2.0861626e-07,0.00019556284,6.3985586e-05,2.0682812e-05,0.0001771748,0.0027020574,7.599592e-06,0.2949193,0.7211714
1.7881393e-07,2.682209e-07,0.99971163,0.00042563677,0.014945179,9.0807676e-05,0.0019161999,3.5762787e-07,0.9898063,3.5762787e-07
0.8069637,1.6391277e-06,0.21448672,3.33786e-06,1.3411045e-06,0.0007338524,0.0040287673,0.0016320348,0.0008804798,0.0006804466
8.940697e-07,0.0013203919,0.6688421,0.9992163,3.1858683e-05,0.0006169975,0.008765042,5.9604645e-08,0.3450291,0.00029298663
3.2544136e-05,0.99632466,0.0024703443,0.010072947,1.2516975e-06,0.024222285,0.004517466,1.7881393e-06,0.19173178,0.0021788478
3.1888485e-05,0.0,3.2484531e-06,9.417534e-05,4.7683716e-07,0.0007426739,0.011021763,8.34465e-07,0.9997888,2.7120113e-05
7.748604e-07,2.2232533e-05,0.9989599,0.0007812381,8.910894e-06,0.12561482,0.0017559826,2.3841858e-07,0.10951671,1.0430813e-06
0.7639219,0.0,1.6391277e-06,1.6093254e-06,0.0,0.0015791655,0.00068455935,6.54757e-05,0.3940679,5.4955482e-05
0.5663367,0.0,1.2367964e-05,1.6391277e-06,4.9471855e-06,0.00028565526,0.00066164136,0.133095,0.009531468,0.0006868243
0.9892202,0.0,0.0,0.0,0.0,7.4207783e-06,0.0006066859,0.0008265972,8.6426735e-07,1.9669533e-06
1.4901161e-07,4.7683716e-07,0.000980854,1.8835068e-05,4.827976e-06,0.9999963,0.0019594133,3.388524e-05,0.9498815,1.2725592e-05
0.37026358,8.940697e-08,4.053116e-06,3.0964613e-05,3.5762787e-07,0.0011194646,0.0020994842,1.0758638e-05,0.77575904,5.7399273e-05
0.0026853383,0.0,1.8775463e-05,4.5508146e-05,2.0861626e-07,0.00038599968,0.0005746782,0.0012976825,0.9741179,0.0014824569
0.019885838,0.0,2.259016e-05,1.1920929e-07,4.5597553e-06,0.0022139847,0.005142182,7.56979e-06,0.9119946,0.00121364
2.9802322e-08,3.9041042e-06,0.00170362,0.00012585521,7.259846e-05,0.99999976,0.0037455857,1.2904406e-05,0.7941541,1.0311604e-05
8.940697e-07,0.0023808181,0.0067633986,0.04700759,0.00029724836,0.317696,0.74160403,2.5838614e-05,0.0012668967,0.0035327375
0.60001993,9.000301e-06,0.00016537309,3.2812357e-05,2.3841858e-07,0.0013330877,0.001154393,0.00091406703,0.00064077973,0.6570801
1.5556812e-05,0.0,1.6242266e-05,0.000302881,2.3901463e-05,0.0009850264,0.0012168586,0.9982488,0.00023022294,0.004297644
9.23872e-07,0.0,1.770258e-05,0.0016922057,0.99738586,8.7052584e-05,0.0038462281,1.7642975e-05,0.045621574,0.000103622675
5.066395e-07,0.00042116642,0.0049037635,2.7149916e-05,0.001655966,0.9326659,0.3222121,9.179115e-06,0.20961607,0.012090296
0.978323,0.0,2.1457672e-06,2.771616e-06,4.7683716e-07,0.002780646,0.0010801852,1.1920929e-06,0.0068822205,0.00015026331
5.364418e-07,0.0,4.172325e-07,0.9999987,2.0861626e-07,0.00010511279,0.0008818507,0.0,0.0063738525,0.0
0.0006816685,6.198883e-06,0.05028045,0.0002731681,0.029153913,0.0011642575,0.0073292255,5.4240227e-05,0.9357778,0.008549541
0.0008036196,1.1026859e-06,0.9919536,2.9802322e-06,0.0042181015,0.002556175,0.058095574,0.0022757351,0.0701592,0.00046998262
0.0015865266,2.232194e-05,1.4305115e-06,5.364418e-07,5.9604645e-08,0.001043886,0.9943806,4.23193e-06,0.0030699074,0.00052267313
0.11930695,2.7120113e-06,5.969405e-05,2.8669834e-05,5.364418e-07,0.0016769171,0.008845687,5.364418e-07,0.7987022,0.0008635819
1.1920929e-05,0.00016129017,0.005454302,0.0005837977,0.000641346,0.94564354,0.11978063,0.0007507801,0.011167526,0.028422117
2.1100044e-05,1.5616417e-05,1.2814999e-06,2.720952e-05,8.076429e-06,0.5505423,0.86407936,1.3709068e-06,0.0064150095,0.0014440417
0.96647733,2.9802322e-08,2.0563602e-06,5.325675e-05,2.3841858e-07,0.003709972,0.0009123385,1.591444e-05,0.0006918907,0.011111289
0.019374192,6.3180923e-06,0.0008071661,2.9206276e-05,2.6792288e-05,0.0008842647,0.0061486363,4.3213367e-06,0.049236715,0.8974538
5.0216913e-05,1.5497208e-06,0.00040608644,0.000120550394,0.00011509657,0.9994987,0.0105980635,3.0726194e-05,0.2786506,0.00041159987
0.9959787,0.0,2.0861626e-07,3.5762787e-07,0.0,0.001948446,0.001565963,3.349781e-05,0.00016075373,1.8566847e-05
2.9802322e-08,2.5331974e-06,0.997769,0.9995693,0.00012531877,0.0006560683,0.0032716393,0.0,0.016669959,1.1920929e-07
0.65540534,0.0,9.536743e-07,1.0371208e-05,2.9802322e-08,0.0014436841,0.0017359853,1.4007092e-06,0.5047556,0.00011906028
0.85700583,0.0,4.0233135e-06,2.0861626e-06,2.682209e-07,0.0005851984,0.0006389618,0.15343589,9.867549e-05,0.0009646416
0.0008674562,0.0,4.7534704e-05,3.361702e-05,2.2947788e-06,0.00024679303,0.0024260283,0.33041906,0.00012367964,0.3572334
0.028601348,0.0,2.989173e-05,1.4871359e-05,0.00010871887,0.0020458102,0.0054031312,9.119511e-06,0.92697966,0.0038029552
0.9834467,4.2915344e-06,2.259016e-05,2.0861626e-07,5.9604645e-08,0.0012865067,0.0063592494,4.6491623e-06,0.00041756034,0.006536633
0.3707723,8.940697e-08,0.00016015768,6.2584877e-07,0.000114262104,0.00036349893,0.0023750663,1.1026859e-06,0.001445055,0.8349431
0.00028693676,8.940697e-08,8.8095665e-05,0.00053036213,0.99166566,0.0012305975,0.007645488,2.9802322e-07,0.015744865,0.007622421
0.99798834,0.0,1.1920929e-07,1.4901161e-07,0.0,0.00052937865,0.0008008778,3.1292439e-06,2.7269125e-05,8.901954e-05
0.0004837513,0.25761777,0.01463303,0.0004911423,1.6391277e-05,0.00220415,0.054206043,2.5629997e-06,0.8330612,0.025319874
0.97118783,1.4901161e-07,7.1525574e-07,5.066395e-07,0.0,0.00035962462,0.0007876754,0.0,0.031222314,7.286668e-05
0.00026744604,1.7881393e-07,1.4901161e-06,4.172325e-07,5.662441e-07,5.7190657e-05,0.009144425,0.0,0.98392105,0.013431102
1.1920929e-07,0.5322558,0.016312748,0.9999009,0.0012123287,0.016419709,0.1161246,1.7881393e-07,0.7457348,1.4066696e-05
0.9915966,0.0,1.9967556e-06,0.0,0.0,0.0011055768,0.0008352399,2.4169683e-05,0.00016587973,0.00022909045
0.99351346,0.0,7.3313713e-06,0.0,0.0,0.00013145804,0.0027101338,0.00040191412,3.6656857e-06,0.00018328428
0.99718,0.0,0.0,1.1920929e-07,0.0,0.0004069805,0.0007034838,1.0728836e-06,0.00029942393,3.400445e-05
0.93578815,0.0,3.6656857e-06,3.33786e-06,1.1920929e-07,0.0018033385,0.0021720827,4.172325e-07,0.0053062737,0.0014070272
0.088288546,1.7881393e-07,9.268522e-06,9.62615e-06,3.5762787e-07,0.0013687015,0.0032010078,7.748604e-07,0.20157415,0.62394434
0.9715815,5.9604645e-08,0.00018334389,4.7683716e-07,8.940697e-08,0.0021449924,0.008715242,8.830428e-05,0.0010400116,0.0030353665
0.99277055,1.1920929e-07,8.940697e-07,1.4305115e-06,0.0,0.0004220903,0.00023385882,1.1920929e-07,0.001178205,0.0016897023
4.7683716e-07,0.0,0.0,4.172325e-07,2.0861626e-07,2.9802322e-08,8.821487e-06,0.0,4.6491623e-06,0.99996626
1.1920929e-07,3.8444996e-06,1.9073486e-06,0.0,0.0,0.0,1.4305115e-06,0.0,2.682209e-07,0.9940801
1.4305115e-06,0.99000525,0.02422145,0.7502933,0.00019362569,0.07114652,0.050395817,1.5497208e-06,0.02148667,0.0005877316
0.00021657348,0.9965583,0.0020925105,0.0033618212,1.3411045e-06,0.011504054,0.008888066,1.5795231e-06,0.017807573,0.0017476678
3.4719706e-05,0.0,0.006978005,7.247925e-05,0.9957855,0.0009332895,0.0030637383,5.364418e-07,0.10339609,0.001419425
0.98635834,0.0,8.940697e-08,6.2584877e-07,0.0,0.0012364388,0.0014575422,4.005432e-05,0.0005144179,0.00016921759
1.4305115e-06,2.3841858e-07,9.2417e-05,8.9854e-05,3.2782555e-07,0.00043717027,0.0409337,3.874302e-07,0.9999649,1.0043383e-05
0.993178,0.0,3.3974648e-06,5.066395e-07,0.0,0.00068062544,0.0012537241,5.364418e-07,0.00033426285,0.00038725138
2.3245811e-06,1.4901161e-07,0.0001950562,0.99903905,0.0014901161,0.0002515018,0.005148828,2.3841858e-07,5.2452087e-06,0.00020241737
3.5762787e-07,4.7683716e-07,0.9962303,0.00051775575,0.8298908,0.00014552474,0.0046725273,1.4901161e-06,0.99583024,5.5730343e-06
4.4703484e-06,3.2484531e-06,0.0004130304,3.0577183e-05,4.440546e-06,0.0004760325,0.0012393296,1.2516975e-06,0.0027670562,0.9984857
1.1920929e-07,3.8444996e-06,1.9073486e-06,0.0,0.0,0.0,1.4305115e-06,0.0,2.682209e-07,0.9940801
7.3730946e-05,2.9802322e-08,1.0699034e-05,0.99981487,8.940697e-08,0.00019168854,0.0033896565,7.4505806e-07,2.130866e-05,3.8444996e-06
0.9335816,0.0,3.1590462e-06,9.23872e-07,1.1920929e-07,0.005254239,0.0041278005,0.001482755,0.00057694316,0.0017787814
0.015611559,0.0,8.46386e-06,1.0371208e-05,5.9604645e-08,0.0001821518,0.0016564727,6.7055225e-06,0.9952587,2.2232533e-05
0.998883,0.0,1.7881393e-07,0.0,5.9604645e-08,0.0011408627,0.0010626018,5.662441e-07,1.23381615e-05,9.909272e-05
0.9706471,0.0,7.5399876e-06,9.23872e-07,0.0,0.0038749874,0.0020706058,9.119511e-06,0.00037038326,0.00013071299
0.0008277297,4.798174e-06,2.002716e-05,1.090765e-05,3.6358833e-06,0.004453659,0.9899814,0.0009043813,0.053287596,0.0005322695
0.020702392,3.5762787e-07,0.00010445714,0.0546138,0.00045853853,0.0014781058,0.0043031275,1.5795231e-06,0.56495255,0.007732004
0.0045701563,2.3841858e-07,5.543232e-06,3.3080578e-06,5.066395e-07,0.0003387332,0.004868418,3.2782555e-07,0.99858356,9.179115e-06
0.99189955,0.0,2.3841858e-07,5.364418e-07,2.9802322e-08,0.0012253225,0.0014283657,0.00036123395,0.00045463443,2.4139881e-05
2.0861626e-07,0.0003812611,0.3373356,0.99991137,0.0009736419,0.0016148686,0.0022930503,0.0,0.08049598,2.9802322e-06
0.0,0.0009939373,0.0015100241,0.9999859,0.000985533,0.00059732795,0.029393166,0.0,0.90744543,1.4901161e-07
5.9604645e-08,1.6093254e-06,0.99812853,0.997491,1.874566e-05,0.0009293258,0.0032384694,8.940697e-08,0.0009851754,5.8710575e-06
0.97487646,8.940697e-08,0.00012654066,2.9802322e-07,1.1920929e-07,0.00048294663,0.0011774302,2.6375055e-05,0.020770043,0.00044330955
8.800626e-05,0.0,3.5762787e-07,2.0563602e-06,0.0,0.00094491243,0.0030450523,1.3709068e-06,0.99932474,2.3692846e-05
0.0040789247,4.091859e-05,1.1861324e-05,1.66893e-05,2.682209e-07,0.0018236637,0.029693514,2.9802322e-08,0.9821817,0.005007446
0.0037610233,1.4901161e-07,1.12354755e-05,6.386638e-05,8.6426735e-07,0.00044935942,0.0064660013,1.66893e-06,0.99704564,0.0001578629
0.99533343,0.0,5.662441e-07,0.0,0.0,0.000503391,0.0010581911,2.413988e-06,0.00020620227,3.2246113e-05
8.940697e-08,0.011294216,0.00091025233,0.9999661,0.00044894218,0.0020692647,0.020173848,2.9802322e-08,0.82882667,1.3411045e-06
0.0,0.00014093518,0.93365467,1.3232231e-05,2.56598e-05,0.00049111247,0.55507493,1.3411045e-06,0.99887514,3.3080578e-06
0.22060844,8.940697e-08,1.0430813e-06,1.552701e-05,0.0,0.0005349219,0.0042086244,6.854534e-06,0.9572284,1.21593475e-05
0.997874,0.0,4.7683716e-07,1.4901161e-07,0.0,0.00071015954,0.002045542,1.1980534e-05,6.902218e-05,6.9737434e-06
6.854534e-07,2.9802322e-07,6.142259e-05,0.99999654,6.118417e-05,0.00036403537,0.009937525,0.0,0.14176029,1.758337e-06
2.3841858e-07,3.874302e-07,0.016615182,0.9999927,0.0026525557,0.00040739775,0.009664744,5.9604645e-08,0.00079506636,1.3113022e-06
7.709861e-05,0.9955272,0.0009061992,0.00045737624,9.834766e-07,0.008427739,0.013920724,3.874302e-07,0.004275322,0.0038641095
0.00038796663,5.9604645e-08,0.00011983514,2.682209e-07,1.7881393e-07,1.0162592e-05,0.002192527,9.596348e-06,0.9997772,2.0861626e-07
1.1712313e-05,0.2117216,2.3514032e-05,0.0026049316,2.4735928e-06,0.08966002,0.4757407,2.9802322e-07,0.22198689,0.03458789
0.03324026,0.7656478,0.00021874905,5.1140785e-05,2.0861626e-07,0.0068016946,0.0055173635,1.4901161e-07,0.0037288666,0.0072897673
0.9849759,0.0,4.7683716e-07,1.013279e-06,5.9604645e-08,0.001525104,0.0011095405,8.940697e-08,0.0065387487,0.00021559
1.1920929e-07,3.8444996e-06,1.9073486e-06,0.0,0.0,0.0,1.4305115e-06,0.0,2.682209e-07,0.9940801
0.007189214,1.8775463e-06,6.0260296e-05,0.0010088682,1.4603138e-06,0.0009897053,0.0010888577,1.758337e-06,0.589093,0.45505756
5.5998564e-05,0.0,6.631017e-05,4.3720007e-05,2.3841858e-07,0.0007158816,0.009606957,0.018418998,0.9984288,1.1771917e-05
2.9206276e-06,2.9802322e-08,0.0002605617,9.62615e-05,0.0029419363,0.0002758503,0.0030124187,5.9604645e-08,0.0072342753,0.9598196
0.99865067,0.0,1.1920929e-07,0.0,0.0,0.00057819486,0.0010294318,5.364418e-07,5.915761e-05,2.9683113e-05
0.99833775,0.0,4.7683716e-07,0.0,0.0,0.00046908855,0.0016421378,3.695488e-06,1.8239021e-05,5.275011e-05
0.00068348646,2.0861626e-07,7.2717667e-06,2.9414892e-05,0.0,0.0006298423,0.0028732717,4.172325e-07,0.99882114,0.00011590123
0.0004737079,0.025601685,0.25897455,3.7431717e-05,6.824732e-06,0.0043147802,0.028100342,2.026558e-06,0.010028034,0.24934334
7.2717667e-06,0.0,3.963709e-06,4.798174e-06,0.0,0.00057187676,0.0038301945,0.0008070469,0.9983218,0.0009545982
4.529953e-06,0.012739629,0.004909426,0.09911257,0.008182228,0.9994534,0.2566098,0.0008968115,0.41011024,0.00038397312
3.6746264e-05,1.4305115e-06,0.00260064,4.568696e-05,1.3113022e-05,0.077996224,0.02632448,7.8201294e-05,0.6666951,0.013735771
0.0077830255,2.9802322e-08,9.834766e-07,1.7136335e-05,1.7881393e-07,0.00077563524,0.00198704,8.940697e-07,0.9916631,0.0014837682
0.9788771,2.9802322e-07,0.00076666474,1.7881393e-07,2.9802322e-08,0.00056529045,0.0012260377,3.46303e-05,0.0003887713,0.001906246
0.010739446,1.013279e-06,0.98998547,1.7881393e-07,3.5762787e-07,0.0002799332,0.0017829537,3.9041042e-06,0.00037041306,0.00015041232
0.9916649,0.0,4.23193e-06,6.2584877e-07,0.0,0.0020239055,0.003981769,6.943941e-06,0.00062832236,3.84748e-05
0.3853578,8.940697e-08,2.4437904e-06,6.4074993e-06,0.0,0.00083065033,0.0011984706,0.0015643239,0.4663807,0.0066593587
6.1392784e-06,0.98927975,0.0034027994,0.02280283,0.0013605952,0.0074440837,0.004333347,2.0861626e-07,0.77124214,0.0034131408
4.440546e-06,0.0,2.9802322e-06,0.99999154,2.0861626e-07,0.00010764599,0.00062036514,0.0,9.298325e-06,7.4505806e-07
0.0,0.009312779,0.6506687,0.9401574,0.00031799078,0.0002104342,0.00931111,8.940697e-08,0.9989197,4.7683716e-07
0.99877536,0.0,2.9802322e-07,0.0,0.0,0.00017544627,0.00044453144,8.940697e-07,9.983778e-06,1.3768673e-05
0.0012942255,2.9802322e-07,0.0019161999,4.440546e-06,6.854534e-07,0.99971056,0.006843269,6.1392784e-06,0.0023441017,6.330013e-05
0.9955747,5.9604645e-08,8.6426735e-07,1.6987324e-06,2.9802322e-08,0.0016901195,0.003409654,1.5705824e-05,0.000112086535,0.001309514
3.2782555e-07,3.3080578e-06,0.00032866,0.00016748905,3.2782555e-07,0.99638474,0.011589646,7.987022e-06,0.9878353,8.407235e-05
8.1300735e-05,1.1920929e-07,6.0498714e-05,0.99998784,1.1026859e-05,0.0010275543,0.0013176799,5.9604645e-08,9.870529e-05,1.9967556e-06
1.4901161e-07,0.9228121,0.015262723,0.9987736,0.0014536679,0.005806178,0.014049441,1.1920929e-07,0.3470467,4.5597553e-05
3.4451485e-05,6.28829e-06,0.00034689903,9.915233e-05,3.415346e-05,0.9999992,0.027738363,1.886487e-05,0.019009829,1.1622906e-05
0.0005429983,0.0,8.106232e-06,1.0430813e-06,1.7881393e-06,5.224347e-05,0.0009968579,5.3346157e-06,0.9996974,5.364418e-07
0.01055041,0.0,1.7881393e-07,3.874302e-07,0.0,1.6361475e-05,0.00017499924,2.9802322e-08,0.96751726,0.00019356608
0.008374006,0.0,1.4543533e-05,8.490682e-05,0.002546519,0.0029254854,0.0018173456,0.00017926097,0.8440497,0.0013648272
0.0002360642,4.7713518e-05,0.083559185,7.599592e-06,1.1026859e-06,8.0525875e-05,0.0059050918,2.2411346e-05,0.9988539,5.531311e-05
0.9568627,8.940697e-08,5.453825e-06,2.9802322e-07,1.1920929e-07,0.0006264746,0.0029066205,0.00013929605,0.0018081367,0.0030947328
0.8318802,5.9604645e-08,2.95043e-06,4.798174e-06,2.9802322e-08,0.16729999,0.005938679,1.6391277e-06,0.0012062788,8.276105e-05
0.050510913,6.133318e-05,2.297759e-05,1.92523e-05,1.4901161e-07,0.0020684302,0.027087718,0.0006965995,0.037226945,0.086660236
0.9806408,1.1920929e-07,8.046627e-06,5.066395e-07,8.940697e-08,0.00027564168,0.00055521727,5.364418e-06,0.00031596422,0.023195148
0.000118136406,1.1622906e-06,0.0024878085,3.0100346e-06,8.940697e-07,0.00038179755,0.013626397,1.8417835e-05,0.99831754,0.0006816089
9.983778e-06,0.99904007,0.00028982759,0.08310959,4.452467e-05,0.004719138,0.0040150583,8.940697e-08,0.8387392,0.0011879802
0.0,1.2516975e-06,0.990824,0.999907,0.9862753,0.00020936131,0.017088145,8.940697e-08,0.00018173456,2.0861626e-07
1.4305115e-06,0.999092,0.0006698966,0.00079509616,1.1920929e-07,0.024236232,0.0016593933,8.940697e-08,0.052093863,0.0011205077
0.98652405,0.0,4.917383e-06,7.748604e-07,0.0,0.0006662309,0.00046738982,8.34465e-07,0.0024691522,0.002630651
0.00073850155,0.0007402897,0.0002925098,3.8057566e-05,3.874302e-07,0.0024070144,0.0053175986,9.536743e-07,0.9076762,0.15694836
0.120604604,1.2814999e-06,1.9937754e-05,2.1457672e-06,0.0,0.0010258555,0.0026732385,0.0,0.8474746,0.00024345517
9.953976e-05,8.046627e-06,5.364418e-07,3.427267e-06,1.013279e-06,0.0052500367,0.9973649,0.0,0.003858626,0.0005393028
0.021951437,0.0,3.6358833e-06,2.2649765e-06,2.0861626e-07,0.0002849698,0.0031880438,1.3917685e-05,0.99471164,1.30832195e-05
0.00056642294,6.2584877e-07,0.0638105,1.6987324e-06,3.6090612e-05,0.00013661385,0.0009287298,0.0005481541,0.014390171,0.74186295
0.99754655,0.0,2.3841858e-07,1.4901161e-07,0.0,0.0005659461,0.00084519386,1.4007092e-06,8.204579e-05,0.00015857816
0.10427526,2.9802322e-08,2.6464462e-05,1.1920929e-06,2.2649765e-06,0.00086313486,0.0020716488,8.940697e-08,0.003584355,0.8862324
0.0015006363,5.066395e-07,0.8583819,6.1690807e-06,0.009030223,0.0011310577,0.0023708344,7.18832e-05,0.0013558567,0.007905424
0.0,3.5464764e-05,4.7385693e-06,0.99999523,2.0205975e-05,0.0012275279,0.85900116,1.1920929e-07,7.3224306e-05,3.5762787e-07
0.9902904,2.9802322e-08,2.2351742e-06,5.364418e-07,2.0861626e-07,0.000810951,0.0010190308,4.9471855e-06,5.224347e-05,0.00070136786
0.9840368,2.9802322e-08,8.890033e-05,4.5895576e-06,0.0,0.00065913796,0.00046777725,0.00028830767,0.00069612265,0.004480839
5.9604645e-07,0.0002336204,0.0018462837,0.39253455,0.0014268458,0.99999857,0.030068606,6.815791e-05,0.0263547,4.863739e-05
4.3421984e-05,8.34465e-07,0.00017511845,9.536743e-07,6.943941e-06,0.0004929602,0.011826158,5.3346157e-06,0.00041756034,0.9908531
4.2915344e-06,0.9887294,0.0014306009,0.008910477,0.00013187528,0.93116343,0.001093477,5.5134296e-06,0.14242157,8.225441e-05
0.98150826,0.0,3.3080578e-06,2.9802322e-08,0.0,0.0006299019,0.0014483035,0.007961512,4.029274e-05,4.529953e-05
0.9952451,0.0,3.5762787e-07,2.9802322e-07,5.9604645e-08,0.0009913445,0.00096789,2.026558e-06,9.247661e-05,0.00030362606
0.31355786,2.9802322e-08,2.682209e-07,2.2828579e-05,2.9802322e-08,0.0005901754,0.0013794899,5.066395e-07,0.72671986,0.00020942092
0.1227659,1.1146069e-05,0.050284833,2.592802e-06,4.4703484e-07,0.0031155348,0.0027500987,0.022184402,0.03200251,0.005022794
7.748604e-07,1.0728836e-06,1.2516975e-06,9.745359e-06,0.0,7.635355e-05,0.0066158175,2.9802322e-08,0.9999597,1.6391277e-06
0.9953421,0.0,6.854534e-07,1.7881393e-07,1.4901161e-07,0.0010051131,0.001596272,7.0631504e-06,5.1140785e-05,0.00083476305
0.00023713708,0.0,5.662441e-07,2.9802322e-07,0.0,1.7613173e-05,0.0016003847,1.1920929e-07,0.9998663,9.23872e-07
0.008980155,0.0,1.4811754e-05,9.834766e-07,1.5497208e-06,0.0005373657,0.0018258691,8.493662e-06,0.9898831,3.683567e-05
0.0005995631,0.0,7.56979e-06,1.1593103e-05,5.066395e-07,0.00033918023,0.003828168,1.3709068e-06,0.99974823,8.6426735e-06
4.1007996e-05,5.155802e-06,0.000102728605,2.6762486e-05,4.172325e-07,0.999974,0.013114959,1.21593475e-05,0.018502593,9.715557e-06
0.0018719137,0.000120162964,0.0010330379,8.940697e-07,4.684925e-05,0.0023378432,0.98864436,1.1026859e-06,6.276369e-05,0.00053557754
3.2484531e-06,0.9989733,0.0013396442,0.023244888,4.7683716e-07,0.009731293,0.0019050837,5.9604645e-08,0.23610562,0.0019295514
0.0014232695,0.8442708,0.0015426874,5.13494e-05,1.7881393e-07,0.012209594,0.025551021,8.34465e-07,0.0075689554,0.06584945
3.0696392e-06,0.5304179,0.049806684,0.0006470382,1.1920929e-07,0.0005930066,0.019515753,5.9604645e-07,0.9986724,0.00010457635
0.9392773,0.0,8.940697e-08,0.0,0.0,3.0487776e-05,0.0004977584,0.17440107,1.5735626e-05,4.5329332e-05
0.0,1.4901161e-07,1.2725592e-05,0.99999917,0.0064604282,0.00015899539,0.0034089684,8.940697e-08,0.0052782893,3.3974648e-06
