0,1,2,3,4,5,6,7,8,9
0.98371506,1.1920929e-07,2.8908253e-06,1.6063452e-05,5.9604645e-08,0.0019673705,0.0008274019,1.4901161e-06,0.0018994808,0.009689897
0.8961843,0.0,1.3113022e-06,1.5944242e-05,0.0,0.00014406443,0.00024160743,0.020547867,3.054738e-05,0.0030368567
5.4836273e-06,6.9737434e-06,0.006625116,0.0020699203,0.902007,0.99998796,0.0018984377,8.285046e-06,0.00056687,4.9471855e-06
5.9604645e-08,1.8656254e-05,8.940697e-08,0.99995595,5.364418e-07,0.036156118,0.97245157,8.940697e-08,7.420778e-05,4.7683716e-07
0.0002848804,0.0,2.9802322e-08,0.9999491,0.0,0.0005647242,0.00045621395,2.9802322e-08,0.0005541146,5.066395e-07
0.9893888,0.0,1.4901161e-07,2.9802322e-08,0.0,7.69496e-05,0.00019401312,0.0002487898,6.198883e-06,3.5583973e-05
0.001740247,0.0,2.0563602e-06,9.447336e-06,1.1920929e-07,0.0006980598,0.004915178,1.7881393e-07,0.9912591,0.0017238557
7.1525574e-07,0.0,5.0723553e-05,0.99999785,0.9944985,0.0023269057,0.0011136234,1.4901161e-07,0.00046887994,8.940697e-08
1.2218952e-06,5.9604645e-08,1.6391277e-06,0.55919987,7.4505806e-07,0.00014391541,0.0017915964,2.0444393e-05,0.999838,2.3841858e-06
1.1473894e-05,3.6656857e-06,8.940697e-07,1.937151e-06,8.85129e-06,0.0015044808,0.999412,1.4424324e-05,0.0012702346,0.0007414222
0.0004338622,0.0,0.68529904,7.390976e-05,5.427003e-05,0.00024914742,0.004890889,9.924173e-06,0.9908807,4.2945147e-05
0.0028765202,0.0,9.9003315e-05,1.0728836e-06,5.930662e-06,2.104044e-05,0.0008108914,2.4735928e-06,0.998111,3.5762787e-06
3.5762787e-07,0.20106462,0.00013405085,0.9930037,1.2516975e-06,0.0028082132,0.01371038,0.0,0.8431752,5.0127506e-05
4.0620565e-05,0.9839191,0.00087606907,0.00047799945,2.6851892e-05,0.0014005601,0.0001887083,2.6524067e-06,0.030787945,0.0016459227
0.10216519,0.0,5.6624413e-06,9.23872e-07,0.0,0.00025379658,0.00080382824,0.0001256764,0.95669603,8.1926584e-05
0.001817286,0.045208305,0.0006198585,0.00010532141,0.00011616945,0.0018443465,0.18690675,1.7881393e-06,0.5785671,0.0078001022
1.6570091e-05,0.0,6.645918e-06,0.99998164,0.00015997887,0.00041604042,0.0023447871,1.1920929e-07,0.16564924,2.771616e-06
0.9897117,1.7881393e-07,8.34465e-06,1.1920929e-06,2.9802322e-08,0.00058302283,0.00013276935,1.5199184e-06,0.0003013909,0.008302569
1.5497208e-06,0.0018956363,0.31965435,0.000110358,0.0016871095,0.02502507,0.8784882,0.0002271831,0.753101,0.0004028976
1.3321638e-05,1.4603138e-06,5.066395e-06,0.00044167042,1.8686056e-05,0.001992792,0.79440635,0.00057417154,0.9315568,0.00011971593
0.99397814,0.0,5.066395e-07,5.9604645e-08,0.0,0.00045916438,0.00021097064,1.1205673e-05,2.3901463e-05,0.0006174147
0.047944516,1.66893e-06,0.5660509,0.008559465,2.9802322e-07,0.0013454556,0.0011385381,7.6174736e-05,0.00025987625,0.0003478229
0.9971101,0.0,0.0,2.0861626e-07,0.0,0.00030076504,0.00024855137,1.013279e-06,5.555153e-05,0.00039073825
0.0004709363,5.850196e-05,0.0012068152,0.015267909,1.5497208e-06,0.0015438795,0.004082769,2.4318695e-05,0.9971743,0.0011641085
0.00040352345,0.0,3.1292439e-06,5.364418e-07,1.4901161e-07,5.3346157e-05,0.000521332,2.771616e-06,0.9947737,0.0007558465
3.0398369e-06,0.00016909838,0.106636524,3.6507845e-05,0.0017833114,0.9091996,0.024907649,0.00041478872,0.038134307,0.0066964626
0.006054431,0.0033117533,0.00011819601,5.066395e-07,9.23872e-07,0.0021292567,0.2448417,7.104874e-05,8.0406666e-05,0.0177508
0.8752874,0.0,2.413988e-06,0.0,5.9604645e-08,0.00010499358,0.00021141768,0.028115243,8.019805e-05,0.0005070269
0.0126235485,0.0,2.4437904e-06,3.1769276e-05,1.1920929e-07,1.1980534e-05,0.00020459294,0.98878175,0.016144842,0.00027137995
1.0728836e-06,0.9942456,0.000114142895,0.62461996,4.0233135e-06,0.0058840215,0.011060357,8.940697e-08,0.99592453,2.0861626e-05
3.9190054e-05,1.9907951e-05,1.7881393e-07,1.4007092e-06,2.682209e-07,0.0010448992,0.994135,1.1920929e-07,0.009779006,0.0028015077
9.119511e-06,6.943941e-06,3.5762787e-07,9.745359e-06,2.0861626e-07,0.0051183105,0.99848765,4.7683716e-07,0.046509832,5.8412552e-05
0.0022396743,2.5629997e-06,1.1056662e-05,8.34465e-07,1.6987324e-06,0.0007197857,0.9946796,2.682209e-07,6.946921e-05,5.6922436e-05
1.0162592e-05,0.0,3.963709e-06,0.99995995,8.738041e-05,0.0005299449,0.00426504,1.937151e-06,0.00011062622,4.8577785e-06
0.78430784,0.0,1.758337e-06,7.4505806e-07,1.3113022e-06,0.00020134449,0.00037041306,3.606081e-06,0.47133324,0.00022384524
0.998891,0.0,2.682209e-07,0.0,0.0,0.000541687,0.00017848611,5.9604645e-08,2.2351742e-06,6.8217516e-05
0.93161106,0.0,1.2516975e-06,4.7683716e-07,1.4901161e-07,0.0023205876,0.00290367,5.662441e-07,0.0467695,0.0063256025
0.9983889,0.0,0.0,1.4901161e-07,0.0,0.0002400577,9.724498e-05,2.9802322e-07,1.7851591e-05,7.790327e-05
0.97649693,0.0,2.7120113e-06,1.1920929e-07,8.940697e-08,0.0015884936,0.00097227097,1.9073486e-06,3.2812357e-05,0.020295382
6.183982e-05,0.0,3.2782555e-07,5.066395e-07,0.0,4.824996e-05,0.0012594461,5.6028366e-06,0.99993813,2.503395e-06
1.1920929e-06,7.748604e-07,0.953814,0.003709942,0.00014138222,0.00014856458,0.0011632144,8.547306e-05,0.99529546,5.4955482e-05
0.73885655,5.9604645e-08,1.6987324e-06,1.3619661e-05,2.5391579e-05,0.00058349967,0.0011236072,0.0,0.24015006,0.0012145042
8.34465e-07,1.013279e-06,0.01065433,7.8469515e-05,2.7805567e-05,0.99999964,0.0038455427,8.684397e-05,0.07609102,6.2584877e-06
5.364418e-07,0.99928117,7.599592e-06,0.005383849,7.95722e-06,0.0008764565,5.608797e-05,5.9604645e-08,0.9878433,1.8268824e-05
0.00027009845,0.0,5.4836273e-06,1.9818544e-05,0.0,0.00023046136,0.014500231,1.2129545e-05,0.99970025,5.1409006e-05
0.001394093,0.0,2.0861626e-07,1.1056662e-05,2.9802322e-07,1.5199184e-05,3.439188e-05,0.99737203,0.0047542155,0.00018385053
0.1254524,2.9802322e-08,4.091859e-05,2.3841858e-07,1.5199184e-06,0.00018849969,0.0009573102,1.4007092e-06,0.96369755,0.00015327334
0.005028039,6.2584877e-07,0.00022950768,0.002204597,1.0788441e-05,0.0013510287,0.0033889413,0.0013414025,0.9698993,0.0013841093
6.645918e-06,0.99788034,0.00026786327,0.0023647845,2.6524067e-05,0.0059596896,0.00012812018,1.1920929e-07,0.46412492,0.00013372302
0.9967737,0.0,2.9802322e-08,2.9802322e-07,0.0,0.00121364,0.00030490756,3.2782555e-07,0.00025606155,3.182888e-05
0.000121474266,9.834766e-07,0.006574571,2.3037195e-05,3.606081e-06,0.78342414,0.0108914375,0.00049355626,0.0021259785,0.0013961196
4.3213367e-06,0.99891686,9.4652176e-05,8.332729e-05,1.692772e-05,0.0047180355,0.00012782216,1.66893e-06,0.012753606,0.0002834201
1.7881393e-07,7.1823597e-06,0.00025427341,3.7282705e-05,1.1980534e-05,0.9999999,0.0040252805,2.115965e-06,0.5024898,2.193451e-05
0.19087803,0.0,7.748604e-07,7.125735e-05,0.0,0.0014122128,0.00056272745,0.0021620095,0.6333546,0.0040765405
0.96037376,5.9604645e-07,4.10676e-05,1.0728836e-06,1.9490719e-05,0.0010305643,0.00079113245,2.95043e-06,0.0010835826,0.028164864
1.5497208e-06,0.9998645,3.0696392e-06,0.00038796663,0.00016215444,0.010684907,0.00011315942,0.0,0.08843508,4.053116e-05
0.61985755,1.5199184e-06,7.688999e-06,1.1920929e-06,0.0,0.0015423,0.0019167662,5.0365925e-06,0.11459717,0.10556179
1.0758638e-05,0.9990109,0.0014203489,0.000677228,2.9802322e-07,0.015774399,0.0007208884,1.0669231e-05,0.0025652945,0.00026905537
0.97266895,0.0,4.3809414e-06,2.9802322e-08,0.0,0.00034826994,0.00026094913,0.00094509125,0.0029081106,0.0013567805
9.745359e-06,0.99823797,1.1175871e-05,0.00054219365,3.385544e-05,0.0055991113,0.0003658831,2.9802322e-08,0.067520946,0.0020707846
0.99785256,0.0,1.5199184e-06,2.9802322e-08,0.0,0.0007390976,0.00024989247,1.4692545e-05,8.058548e-05,7.635355e-05
0.0194197,1.013279e-06,8.016825e-06,1.7285347e-06,3.2782555e-07,0.9559305,0.010480434,1.1622906e-06,0.20682776,0.00067943335
6.735325e-06,3.606081e-06,0.0014948845,0.0031161904,0.942672,0.99992764,0.0036733449,0.000113904476,0.0022571087,0.000106066465
1.0758638e-05,8.34465e-07,0.0,0.0,0.0,1.3411045e-06,0.00013244152,0.0,0.048605382,0.9781506
0.022599757,3.1530857e-05,0.0017152131,3.2633543e-05,3.8146973e-06,0.0009858608,0.017119318,2.115965e-06,0.6054838,0.175486
0.9957248,0.0,1.9073486e-06,5.9604645e-08,0.0,0.0002616346,0.00017112494,8.08537e-05,8.389354e-05,0.00011062622
0.99163914,0.0,5.9604645e-08,0.0,0.0,0.00049215555,9.3609095e-05,0.0020393133,3.4570694e-05,0.00011527538
7.748604e-07,0.0,2.8818846e-05,1.1622906e-06,8.633733e-05,7.778406e-06,0.0013360381,6.2584877e-07,0.9997026,0.00056409836
0.0010385811,9.834766e-07,0.00085029006,0.00024223328,4.5001507e-06,0.00050488114,0.0017747879,0.32370543,0.7453682,0.007022023
0.018268555,0.0,1.1920929e-07,2.0861626e-07,0.0,1.3113022e-06,0.000107347965,0.99008137,3.6418438e-05,1.3589859e-05
0.26089984,0.0,1.6093254e-06,6.005168e-05,2.9802322e-08,0.0005276799,0.00025820732,4.4703484e-07,0.8935524,0.00068852305
0.9898395,0.0,5.9604645e-08,8.940697e-08,5.9604645e-08,0.00019446015,0.00023466349,3.0845404e-05,0.00046142936,0.00029155612
1.5556812e-05,3.5762787e-07,1.3381243e-05,0.9999726,3.0219555e-05,0.0020267963,0.0026278198,4.7683716e-07,0.0018329024,4.887581e-06
0.0002937913,0.0,1.1920929e-07,0.9999206,0.0,0.00044426322,0.0014646351,2.3841858e-07,0.00027763844,1.4007092e-06
0.00043174624,0.0,2.3245811e-06,0.99995327,4.7683716e-07,0.00067836046,0.0005824566,0.0,0.0003671348,1.1622906e-06
0.0007741153,0.0,1.3411045e-06,2.4110079e-05,1.0430813e-06,0.0006762743,0.006450653,3.7550926e-06,0.9982436,0.00028842688
0.32937568,0.0,9.953976e-06,2.95043e-06,3.5762787e-07,0.00013262033,0.0003787279,0.82918507,0.0003543496,0.0074469745
0.97474015,0.0,2.026558e-05,0.0,2.9802322e-08,0.00058192015,0.0013596714,0.002188027,0.00041130185,0.0012473762
0.7330835,0.0,6.2584877e-07,1.2516975e-06,0.0,0.00014090538,0.00014173985,0.006965369,0.059379607,7.429719e-05
0.6854595,8.940697e-08,5.364418e-07,0.07799211,4.172325e-07,0.001561135,0.00044485927,1.6063452e-05,0.0048131645,0.00057190657
0.98816174,0.0,5.841255e-06,1.1920929e-07,2.9802322e-08,0.0029715002,0.0005469024,0.00033345819,0.00024148822,0.0048966706
0.37226206,0.0,2.592802e-06,5.6922436e-06,0.82384425,0.00029709935,0.00048089027,3.5762787e-07,0.00010240078,0.00021225214
0.9887576,0.0,6.338954e-05,1.1920929e-07,0.0,0.00058206916,0.00051113963,1.7672777e-05,0.0007430613,5.1409006e-05
0.9945931,0.0,2.682209e-07,0.0,2.9802322e-08,0.0016191006,0.00034093857,1.3709068e-05,9.804964e-05,0.0007991791
0.000164181,0.0,8.165836e-05,0.0015020967,0.0019587576,0.00012889504,0.0012801588,0.00052616,0.998541,1.5556812e-05
0.98977757,0.0,1.1861324e-05,1.1920929e-07,5.9604645e-08,0.000587374,0.00081703067,0.00041383505,9.000301e-05,0.0006709397
9.536743e-07,1.7881393e-07,0.00016382337,0.0004938543,3.8146973e-06,0.97929764,0.01761812,4.684925e-05,0.9783565,1.335144e-05
5.066395e-07,7.992983e-05,0.000119775534,0.00012788177,0.0039533675,0.0027097762,0.014321893,4.7385693e-06,0.0032622516,0.97882605
4.708767e-06,5.066395e-07,2.9802322e-07,0.99999714,7.1525574e-07,0.0012002587,0.007617861,0.0,0.0053595304,1.4901161e-07
2.592802e-06,0.9994917,7.712841e-05,0.022077084,0.20288122,0.008861601,4.4494867e-05,8.940697e-08,0.30818367,2.9802322e-05
0.042888433,0.0,3.6001205e-05,4.172325e-06,6.958842e-05,0.0003387034,0.0034058988,0.00012755394,0.9370202,0.0008023083
0.9307138,0.0,2.9802322e-07,8.046627e-07,0.0,0.0009317696,0.00052022934,3.7252903e-06,0.17557809,0.00082185864
1.013279e-06,0.0,0.0,7.4505806e-07,0.0,2.9802322e-08,4.261732e-05,0.0,5.662441e-07,0.9999913
0.044633597,0.0,1.0728836e-06,2.1457672e-06,0.0,3.117323e-05,8.5771084e-05,0.96664834,0.0012934804,0.00072076917
0.0,0.00029805303,0.6451342,0.002326101,0.0016489029,1.0,0.0017361045,0.00030630827,0.1514495,1.2516975e-06
0.7655443,0.0,1.1920929e-07,3.993511e-06,1.7881393e-07,0.00024539232,0.00040522218,4.7683716e-07,0.29499283,0.00022101402
3.5613775e-05,5.9902668e-05,0.87473357,0.00010353327,0.0002889037,0.0026444197,0.098447055,4.827976e-06,0.9885471,6.699562e-05
0.87524915,0.0,2.026558e-06,9.3728304e-05,5.9604645e-08,0.0004644096,0.0019557178,0.00537917,0.00050482154,0.0038065016
2.3841858e-07,0.0029418468,8.940697e-08,0.9999217,4.529953e-06,0.025169373,0.7213994,8.940697e-08,0.06059912,4.351139e-06
7.0273876e-05,8.940697e-08,1.8447638e-05,2.2351742e-05,4.7683716e-07,2.8192997e-05,0.000111848116,0.0019619167,0.0018731356,0.95257014
0.98348844,0.0,3.4928322e-05,8.34465e-07,2.3841858e-07,0.0006765127,0.00041472912,0.00023123622,0.0014343262,0.00073859096
0.96664566,0.0,1.6272068e-05,5.990267e-06,6.7055225e-06,0.0006195605,0.0010896027,7.688999e-06,0.006233424,0.0010761917
6.607175e-05,0.0,2.5182962e-05,4.6759844e-05,0.0023183525,2.0563602e-05,0.0045314133,5.066395e-06,0.99945354,7.125735e-05
0.053346545,0.0,1.1026859e-06,1.898408e-05,2.9444695e-05,0.0002668798,0.00046554208,3.784895e-06,0.25373614,0.16775337
0.97832996,0.0,2.026558e-06,9.924173e-06,0.0,0.0027772784,0.0008004904,6.3478947e-06,0.00022703409,0.0007253885
1.847744e-05,0.43071383,0.00031727552,0.52957326,1.8179417e-06,0.010863006,0.031194806,2.115965e-06,0.03078121,0.06563705
3.796816e-05,9.834766e-07,5.0365925e-05,9.7990036e-05,4.827976e-06,0.99997413,0.0063566566,0.0065830946,0.0017854273,0.000104129314
2.0503998e-05,9.5665455e-06,0.072662145,0.9993896,0.00077804923,0.0023358464,0.0019738078,3.8444996e-06,0.11890334,0.0007272363
0.88968325,0.0,4.172325e-06,2.682209e-07,2.9802322e-08,0.0010773838,0.0008330345,2.7507544e-05,0.013225824,0.027462155
3.927946e-05,0.0,8.6426735e-07,0.9999821,3.5762787e-07,0.0019284785,0.001023531,0.0,0.0011591315,6.2584877e-07
0.9945198,0.0,2.9802322e-08,3.5762787e-07,0.0,0.00017657876,0.00010216236,3.7312508e-05,0.00046741962,7.584691e-05
4.9620867e-05,8.940697e-08,0.001866579,0.687101,0.99868536,0.0005659759,0.0019818246,4.082918e-06,0.0077361166,7.0929527e-06
8.940697e-08,0.99759614,6.2584877e-07,0.3006041,0.0,0.00041806698,0.00046527386,0.0,0.9985721,1.9669533e-06
0.9889307,0.0,4.7683716e-07,8.34465e-07,1.1920929e-07,0.0007173419,0.0015746653,2.9802322e-08,0.00016027689,0.0010837615
5.066395e-07,0.00027740002,0.98206544,0.0010349154,0.00029316545,0.0010939538,0.002424091,1.4513731e-05,0.98909056,8.049607e-05
0.933699,0.0,0.00046253204,1.7881393e-07,1.1622906e-06,0.0022111237,0.0011998415,9.208918e-06,0.0038825274,0.014345795
1.8179417e-06,6.854534e-07,2.5302172e-05,2.1755695e-06,3.257394e-05,0.96822035,0.02501303,3.0994415e-06,0.9532207,0.00012356043
4.172325e-07,5.6892633e-05,0.036887616,0.0015252233,0.00011596084,1.0,0.004567474,4.4614077e-05,0.062704206,6.28829e-06
4.6253204e-05,5.662441e-07,4.553795e-05,0.9999155,1.9073486e-06,0.001303792,0.04310757,1.5199184e-06,0.0022072494,4.2289495e-05
6.556511e-06,0.0,2.5331974e-06,1.1622906e-06,1.1920929e-07,8.940697e-06,4.2259693e-05,0.9996176,0.0010952652,0.00067684054
0.98715925,0.0,7.1525574e-07,1.4901161e-07,2.0861626e-07,0.0006226897,0.0004890859,1.0728836e-06,0.00071167946,0.0019301474
0.9892676,0.0,4.172325e-07,4.172325e-07,1.4901161e-07,0.0004951656,0.00030243397,4.3094158e-05,0.00031414628,0.00048801303
0.9982551,0.0,6.2584877e-07,5.9604645e-08,0.0,0.00048357248,0.00045868754,2.3841858e-06,3.5136938e-05,0.0001617372
0.37358654,0.0,4.172325e-07,1.9431114e-05,0.0,0.0037674606,0.0005093515,4.1425228e-05,0.8248651,0.0020003617
0.4672558,4.553795e-05,1.9818544e-05,0.00020194054,2.527237e-05,0.0007787347,0.0023703277,1.4603138e-06,0.2231322,0.018186271
1.7881393e-07,0.0,0.0,0.0,0.0,0.0,5.662441e-07,0.0,0.00017288327,0.99994856
0.00046235323,1.3917685e-05,0.00088232756,2.5629997e-05,1.1920929e-07,9.2417e-05,0.0037977397,9.23872e-07,0.17069584,0.9164151
2.4497509e-05,0.9009297,0.0064502954,0.001704067,0.00021469593,0.0011924803,0.00037634373,0.0017256737,0.003637582,0.5362588
0.011861056,0.0,5.155802e-06,7.301569e-06,1.4811754e-05,0.0004937649,0.004418701,1.8775463e-06,0.97431445,0.0033451915
0.9374684,0.0,6.556511e-05,3.33786e-06,3.695488e-06,0.0029104352,0.00062572956,8.785725e-05,0.025148481,0.010708451
4.172325e-06,0.999025,0.00011125207,0.0001090765,0.00015980005,0.020871162,0.0003965497,1.4901161e-07,0.07161966,6.219745e-05
0.0024971664,0.0,6.559491e-05,3.874302e-07,0.0,0.00012084842,0.0011023283,1.937151e-06,0.9921232,0.0006380975
0.00031268597,2.7775764e-05,3.516674e-06,1.2993813e-05,0.00011137128,0.0056062043,0.97395,1.731515e-05,0.0033044517,0.01870215
0.97704816,5.9604645e-08,2.0861626e-07,5.9604645e-08,0.0,0.0004221201,0.00032421947,1.7881393e-07,0.018745452,0.0007200241
6.2584877e-07,0.99956787,3.3646822e-05,0.68875974,0.00022807717,0.0064772964,0.0001758337,2.9802322e-08,0.027151883,0.00014531612
1.4007092e-06,3.5762787e-07,0.0005994439,0.99920046,0.0074174106,0.00024685264,0.0035424232,6.943941e-06,0.00083476305,0.0010763407
0.7654639,8.940697e-08,7.212162e-06,0.014755517,7.8350306e-05,0.0023441613,0.0010765791,2.6524067e-06,0.0033571124,0.004690826
0.1584202,3.0696392e-06,1.3887882e-05,4.172325e-07,1.1920929e-07,0.00043308735,0.001579076,5.662441e-07,0.8722758,0.006141275
0.21767193,5.9604645e-08,0.0010983944,1.0997057e-05,5.066395e-06,0.0006080568,0.0021091998,1.4305115e-06,0.8437464,0.00026518106
3.194809e-05,0.0,7.748604e-07,2.0682812e-05,8.046627e-06,3.0964613e-05,0.00060781837,4.172325e-07,0.9996623,2.321601e-05
0.2126688,2.9802322e-08,2.3543835e-06,6.765127e-06,2.3841858e-07,0.0007260442,0.00085270405,2.259016e-05,0.82672304,0.0017493665
0.72920895,0.0,1.1920929e-06,2.7120113e-06,4.7683716e-07,0.0005027652,0.00056648254,0.0010115504,0.06873503,5.2660704e-05
0.94076157,8.940697e-08,5.4746866e-05,1.50203705e-05,1.4901161e-07,0.009936601,0.0014776886,3.0994415e-06,0.0049209297,0.0199565
0.9983318,0.0,2.3841858e-07,5.9604645e-08,0.0,0.0007587373,0.0003670156,2.95043e-06,2.7924776e-05,0.00017860532
5.4240227e-06,3.2782555e-07,1.4901161e-07,0.9999945,1.4901161e-07,0.007770002,0.030109733,5.9604645e-08,0.00061544776,1.7881393e-07
0.16355565,1.1920929e-07,1.9073486e-06,1.7017126e-05,0.0,0.0047858953,0.0018811524,2.95043e-06,0.9174665,0.0005621612
0.9190366,0.0,9.23872e-07,3.2782555e-07,5.9604645e-08,0.00010946393,0.00023370981,0.0063604116,0.0064896345,0.00032770634
0.9956362,0.0,1.1920929e-06,1.1026859e-06,0.0,0.0013535023,0.0019941032,3.5762787e-06,2.3156404e-05,0.00025567412
0.0074511766,2.0861626e-07,0.00020447373,2.503395e-06,4.4703484e-07,0.0012671947,0.00967896,5.0365925e-06,0.9636587,0.0054110885
0.9814981,0.0,2.1398067e-05,1.6093254e-06,8.940697e-08,0.013947725,0.00053182244,2.0116568e-05,0.0049331784,0.0008120239
0.43287247,0.0,7.507205e-05,7.748604e-07,2.3841858e-06,0.0009174347,0.00075387955,8.46386e-06,0.20096058,0.007987976
0.00029075146,0.9401877,0.0018406808,0.0006275475,4.211068e-05,0.0073745847,0.0009752214,1.9222498e-05,0.0030150414,0.005473584
0.0001347959,3.0100346e-06,5.9604645e-08,7.82907e-05,0.0,0.0008022487,0.99211955,0.00012549758,1.9818544e-05,0.00013011694
0.00045767426,2.631545e-05,0.0001321435,4.6670437e-05,9.179115e-06,0.8361046,0.096090525,0.0002565682,0.2838961,0.020012021
0.00036612153,1.1920929e-07,1.6152859e-05,0.00045901537,1.2814999e-06,0.0009817779,0.004845619,5.9604645e-08,0.99821573,0.00020554662
0.30854052,1.7881393e-07,1.3113022e-05,3.5762787e-07,0.0,0.0001989305,0.00027570128,6.854534e-06,4.7773123e-05,0.81525
1.001358e-05,0.0,2.0682812e-05,2.82228e-05,0.0042951405,1.975894e-05,0.0015167892,0.8877227,0.3582853,0.0012988746
3.287196e-05,0.96741754,0.00091323256,0.012688726,0.00025862455,0.004002303,0.0072707236,2.0861626e-07,0.03443134,0.0021076202
0.000118494034,5.9604645e-08,2.5004148e-05,0.99992394,2.104044e-05,0.0014149249,0.001355499,2.9802322e-08,0.0053859353,2.2172928e-05
0.99835396,0.0,2.682209e-07,2.9802322e-08,0.0,0.0003373921,0.00021833181,7.4505806e-06,4.9471855e-06,3.2514334e-05
0.017478228,8.940697e-08,0.0003604591,8.583069e-06,6.556511e-06,0.00026020408,0.0003309548,0.95244086,0.00011104345,0.0068377256
0.004455894,2.0861626e-07,9.715557e-06,5.4001808e-05,1.1920929e-07,0.9994234,0.0008389056,4.7683716e-07,0.017900944,1.6480684e-05
1.847744e-06,0.0,1.7285347e-06,0.0,0.0,3.2782555e-07,3.85046e-05,3.5762787e-07,1.66893e-06,0.9999814
3.5762787e-07,0.99104595,0.00010544062,0.0008571148,8.940697e-08,0.0011709332,0.00086790323,0.0,0.99963915,1.1920929e-06
5.9604645e-08,9.2834234e-05,0.00017768145,0.9999918,0.0003940165,0.0009610951,0.080093056,1.2218952e-06,0.012171745,5.5730343e-06
0.0017931461,0.0,1.630187e-05,1.8149614e-05,2.682209e-07,0.00041520596,0.0054522455,3.6388636e-05,0.9969037,0.0002220571
2.6226044e-06,2.413988e-06,5.9604645e-08,2.4944544e-05,8.940697e-08,5.248189e-05,0.7982247,7.0631504e-06,0.9941132,0.0009662211
0.953712,2.9802322e-08,0.00018799305,2.2053719e-06,2.2053719e-06,0.0013919473,0.0007802546,1.9550323e-05,0.0013979375,0.04069519
0.19007829,0.0,6.467104e-06,5.066395e-06,9.23872e-07,0.0006842017,0.0010019541,6.535649e-05,0.9037541,0.002364546
0.0001322627,0.0,3.695488e-06,7.44462e-05,2.05338e-05,0.0005815327,0.012278289,1.5258789e-05,0.99913824,0.00017401576
0.000469774,0.0014919937,0.0001064837,0.002728045,0.00037053227,0.028316647,0.89048415,1.3560057e-05,0.0091708,0.01945573
0.99473596,0.0,1.013279e-06,6.854534e-07,5.9604645e-08,0.0016182065,0.0005337596,4.172325e-07,0.00016739964,0.0019155443
0.99642485,0.0,1.7881393e-07,0.0,4.7683716e-07,0.00053057075,0.0015783906,2.0205975e-05,8.9257956e-05,0.00029799342
5.543232e-06,0.0,9.718537e-05,7.5101852e-06,1.5795231e-06,1.8268824e-05,0.0005274415,3.105402e-05,0.017476052,0.99920774
0.98756284,1.7881393e-07,3.1352043e-05,2.861023e-06,2.9802322e-08,0.020676583,0.020737708,5.725026e-05,0.00014600158,0.0030294359
4.211068e-05,0.99516773,0.020196259,0.0005041063,3.4749508e-05,0.012388796,0.0064086616,3.8027763e-05,0.0146099925,0.0018407702
8.940697e-08,1.7881393e-07,2.026558e-06,0.9999928,0.99310124,0.0011272132,0.00067958236,1.1920929e-07,0.0013487339,5.9604645e-08
7.897615e-06,1.1920929e-07,2.9802322e-08,7.3611736e-06,2.682209e-07,0.0014513135,0.9998412,0.0,1.54078e-05,4.0233135e-06
0.9715307,0.0,1.7881393e-07,2.9802322e-08,0.0,2.8908253e-05,0.00015994906,0.0008222163,9.864569e-05,9.292364e-05
2.0861626e-07,0.0,0.9984641,5.7160854e-05,1.090765e-05,0.00019049644,0.0036000311,3.644824e-05,0.99361265,2.7120113e-06
0.0,0.00026479363,6.219745e-05,0.0005350411,2.1249056e-05,1.0,0.002167672,1.2218952e-06,0.00656718,3.4809113e-05
0.9817119,2.9802322e-08,1.6093254e-06,6.2584877e-07,1.5199184e-06,0.00041300058,0.00045272708,1.7285347e-06,0.0044922233,0.0021540225
2.9712915e-05,9.089708e-05,0.009904772,0.00013113022,6.261468e-05,0.99997807,0.022061527,0.002339065,0.0038885176,0.00040838122
0.0002168119,0.0,1.2814999e-06,9.635091e-05,2.9802322e-08,0.0001206398,0.00082045794,0.00034201145,0.99965495,1.129508e-05
5.9604645e-08,0.00014278293,0.001070261,0.022882283,3.3676624e-05,0.91961396,0.81076384,8.6426735e-07,0.37239617,0.00030374527
1.5258789e-05,0.9938626,0.00025862455,0.6106268,7.632375e-05,0.010681987,0.0026646554,4.4703484e-07,0.5304526,0.00034305453
4.172325e-07,4.976988e-06,8.85427e-05,3.33786e-05,6.3180923e-06,0.9999999,0.0014412999,3.7252903e-06,0.060157508,1.6093254e-06
0.08186829,0.0002924204,0.000184834,0.0022158325,1.4007092e-06,0.000669837,0.0006862581,1.758337e-06,0.0014385581,0.81859684
0.51460314,0.0,2.0861626e-07,1.7881393e-06,2.0861626e-07,0.00041478872,0.00083991885,2.9802322e-08,0.6852374,0.00065892935
0.4696399,5.9604645e-08,6.854534e-07,3.8444996e-06,5.9604645e-08,0.00014555454,0.0002849102,0.0008248091,0.6607422,0.0001309216
2.682209e-07,0.00030454993,0.0015635788,0.004114002,0.00011408329,0.9999407,0.013222218,1.9520521e-05,0.032871306,0.00053834915
1.5795231e-06,2.8640032e-05,0.77870166,4.5627356e-05,2.9802322e-08,4.029274e-05,0.00033432245,3.2782555e-06,0.9989033,8.940697e-07
0.0033392012,3.4570694e-05,0.006172031,0.00014054775,0.0057599545,0.0007598102,0.0006136894,1.8775463e-06,0.29453582,0.08012828
6.7055225e-06,1.3917685e-05,0.0002347827,0.00027152896,5.1259995e-06,0.9889003,0.019739777,9.834766e-06,0.9828242,0.00034826994
0.89116436,0.0,1.0579824e-05,1.013279e-06,6.2584877e-07,0.0010435283,0.00062036514,0.002164185,0.011627823,0.0028105378
0.8400885,0.0,6.183982e-05,5.066395e-07,8.34465e-07,0.000628978,0.001077801,2.4437904e-06,0.037323147,0.019447953
0.000115036964,2.413988e-06,0.00017222762,7.522106e-05,3.889203e-05,0.9983224,0.01252535,0.0051999986,0.02677691,0.007372141
6.1929226e-05,2.682209e-07,0.9928257,0.00033962727,3.84748e-05,0.00033825636,0.012393951,4.351139e-05,0.9816282,2.8431416e-05
4.7683716e-07,0.0023514926,0.83462906,6.431341e-05,0.00014275312,0.11321193,0.1339274,4.3094158e-05,0.91109395,0.0002619326
4.3809414e-06,0.002528578,0.0007453859,0.94963247,0.0010471344,0.0013239086,0.90285444,5.066395e-07,0.22041273,0.00398165
0.010436028,3.194809e-05,0.00040993094,0.8959825,0.95678693,0.024690181,0.010114938,2.3692846e-05,0.0013610721,0.00034430623
0.0071481466,0.0,0.99468005,8.3744526e-05,1.052022e-05,0.0007843077,0.0017927587,0.00020188093,0.00021335483,0.00017905235
0.08040771,0.0,1.6093254e-06,6.2286854e-06,8.6426735e-07,0.00022733212,0.0007687807,1.0728836e-06,0.97221816,6.109476e-05
4.172325e-06,0.06540039,0.0010025799,0.9990718,0.12569582,0.00087729096,9.23872e-05,1.7881393e-07,0.0053237975,9.655952e-06
0.99695545,0.0,1.4603138e-06,0.0,0.0,0.00085011125,0.00042897463,5.364418e-07,0.00011369586,0.00017607212
0.0046957135,0.0,4.7683716e-07,1.8179417e-06,1.013279e-06,0.0040079653,0.92439127,1.3291836e-05,0.005247146,0.00044810772
0.00018596649,0.0,6.854534e-07,5.8323145e-05,0.0045093,1.1950731e-05,0.001216203,7.1525574e-07,0.9991369,3.8325787e-05
5.7816505e-06,0.0,8.940697e-08,0.99999297,2.9802322e-08,0.0005995631,0.0004377663,2.9802322e-08,4.5508146e-05,8.940697e-08
0.9948907,0.0,2.0861626e-07,2.0861626e-07,2.3841858e-07,0.000192523,0.0003257692,1.8775463e-06,0.00013279915,9.512901e-05
0.16024956,1.9609928e-05,4.6372414e-05,0.8361232,1.1861324e-05,0.022964329,0.0018894672,4.6998262e-05,0.0033637881,0.00039216876
0.008751035,0.0,1.937151e-06,2.026558e-06,0.029418528,7.933378e-05,0.0008059144,7.4505806e-07,0.97980666,2.643466e-05
4.3570995e-05,5.9604645e-08,4.374981e-05,9.23872e-07,1.04904175e-05,0.9999974,0.00054469705,1.9073486e-06,0.04095164,0.00014263391
0.9956238,0.0,4.7683716e-07,3.0338764e-05,2.3841858e-07,0.00062420964,0.0006994605,9.834766e-07,6.5267086e-05,0.00031745434
0.00012385845,0.0,0.0021633506,0.99964213,1.168251e-05,0.00032517314,0.00082087517,2.3841858e-07,9.840727e-05,7.748604e-07
0.46729475,8.136034e-06,8.651614e-05,1.1622906e-06,5.9604645e-08,0.00035732985,0.0004182458,6.535649e-05,0.002458632,0.20552701
1.6987324e-05,0.0,8.940697e-08,5.066395e-06,0.0,5.057454e-05,0.00036102533,0.99994195,0.0006235838,0.00013557076
0.000736624,5.364418e-06,4.1037798e-05,3.2424927e-05,8.940697e-06,0.016023815,0.53531474,2.1994114e-05,0.18328404,0.0064228773
0.0002258122,0.0,2.413988e-06,5.185604e-06,3.784895e-06,4.696846e-05,0.00054350495,8.940697e-08,0.99980235,8.374453e-06
0.99784887,0.0,8.940697e-08,2.9802322e-08,0.0,0.00043928623,0.0003014803,5.364418e-07,1.7404556e-05,3.1501055e-05
0.047246575,0.0,0.0023553967,5.120039e-05,1.6987324e-05,0.004739493,0.0015620291,1.603365e-05,0.79549354,0.06924698
0.6858738,0.0,3.5762787e-07,0.0,0.0,0.56662136,0.00058960915,2.9802322e-07,3.2365322e-05,0.0001628995
0.00033584237,0.0,2.0861626e-07,0.99993825,2.0563602e-06,0.00028294325,0.00066006184,2.9802322e-08,0.0004441142,5.275011e-06
0.6597155,5.9604645e-08,0.00012367964,6.28829e-06,7.6293945e-06,0.00036004186,0.00065392256,1.3709068e-05,0.08181113,0.05633536
3.6150217e-05,0.7441379,0.08362821,0.0007918179,1.4513731e-05,0.010994911,0.105841964,0.00042179227,0.22526479,0.023001641
0.99487877,0.0,1.1026859e-06,4.7683716e-07,0.0,0.000798136,0.0005005896,1.168251e-05,0.00066769123,0.0007019937
0.9686038,2.9802322e-08,2.002716e-05,3.784895e-06,3.0398369e-05,0.0026345253,0.004266441,0.00035870075,0.0008215308,0.000584811
0.00017306209,1.8239021e-05,0.00013276935,0.99988043,1.8209219e-05,0.065867156,0.015947104,1.1920929e-07,0.0069075823,2.7149916e-05
0.99843705,0.0,0.0,0.0,0.0,0.00013634562,9.083748e-05,1.7881393e-07,0.00035727024,4.1127205e-05
1.013279e-06,0.00011742115,0.00076162815,0.00019863248,4.157424e-05,0.9986763,0.039252043,0.00056657195,0.014258534,0.011317283
2.682209e-07,0.9987868,7.688999e-05,0.00037321448,4.9471855e-06,0.0005376637,2.4616718e-05,2.9802322e-08,0.9932896,1.937151e-06
0.99496114,0.0,2.682209e-07,9.23872e-07,0.0,0.0010393858,0.0004735291,8.940697e-07,0.00069248676,0.00028315187
0.99483454,0.0,6.2584877e-07,1.6093254e-06,0.0,0.00045323372,0.00023207068,3.1530857e-05,0.0002309382,9.328127e-05
0.018724531,5.364418e-07,6.4074993e-06,1.3709068e-06,0.0,0.0057841837,0.7111653,2.3841858e-07,1.7553568e-05,0.0031944215
0.008486241,0.0,1.9967556e-06,2.5629997e-05,0.0,6.386638e-05,0.0003862083,0.99237156,0.00058311224,0.0005006492
1.1861324e-05,3.5762787e-05,2.142787e-05,3.9070845e-05,1.7881393e-06,0.9999108,0.02900526,1.4483929e-05,0.028235674,0.0006673038
3.8444996e-06,0.97511846,8.106232e-05,0.0005070865,2.3841858e-07,0.83283925,0.0018375218,2.9802322e-08,0.36192572,5.608797e-05
0.9958381,0.0,1.013279e-06,0.0,0.0,0.001255542,0.0006658733,4.0233135e-06,7.2956085e-05,0.0033777952
4.1872263e-05,0.0,3.1292439e-06,0.11524746,8.046627e-07,0.00019407272,0.0010529459,6.854534e-07,0.99973667,6.854534e-07
0.98962164,0.0,2.0861626e-07,2.682209e-07,5.9604645e-08,0.00067961216,0.00032946467,2.1874905e-05,0.00054487586,0.00025042892
2.7269125e-05,2.9802322e-08,2.360344e-05,0.99999213,0.00063079596,0.0013155043,0.0012702644,1.4901161e-07,0.0007263422,3.2782555e-07
0.0017804801,3.2544136e-05,5.3048134e-06,0.0007098317,0.0,0.99793494,0.087355286,1.5199184e-06,0.0016075969,0.0003978312
0.9615147,0.0,7.748604e-07,1.7881393e-07,2.9802322e-08,0.00012099743,0.00016966462,0.001796633,6.0737133e-05,0.00019031763
2.6524067e-06,2.1517277e-05,2.0086765e-05,2.4735928e-06,2.1785498e-05,0.0013006032,0.968971,2.7120113e-06,0.9628717,0.00076547265
0.92376524,5.9604645e-08,1.6331673e-05,2.0384789e-05,1.7404556e-05,0.0024127066,0.0021831095,8.85129e-05,0.0041671693,0.042252243
0.35377705,2.9802322e-08,5.930662e-06,5.9604645e-07,8.046627e-07,1.4573336e-05,7.292628e-05,2.9206276e-06,0.0002246201,0.086797774
0.9727111,0.0,8.940697e-08,0.0,0.0,3.8802624e-05,0.00011181831,0.00023937225,0.00036263466,1.898408e-05
0.08396497,0.0,4.7683716e-07,4.5895576e-06,8.940697e-08,0.00028780103,0.0003130436,7.4505806e-07,0.9762037,0.0003992617
0.025970966,0.0,0.00010487437,1.2218952e-06,1.6391277e-06,0.00040706992,0.0018494129,5.6624413e-06,0.97854733,0.00041365623
0.0025511384,1.7881393e-07,8.34465e-05,0.00014200807,3.835559e-05,7.933378e-05,0.0016202629,3.3795834e-05,0.44735235,0.72052693
0.08693752,0.0,9.4771385e-06,2.115965e-06,5.9604645e-08,0.0016254485,0.004146874,2.682209e-05,0.863729,0.0007299781
9.834766e-07,0.0,3.2186508e-06,0.99999905,5.9604645e-08,0.0002812147,0.003862232,3.874302e-07,0.00055873394,0.0
1.7017126e-05,1.5795231e-06,2.0116568e-05,1.5199184e-06,1.7881393e-07,0.00033953786,0.01290831,1.4781952e-05,0.9948787,0.0009991229
1.2516975e-05,1.847744e-06,0.00058579445,0.99998754,6.4611435e-05,0.0015037358,0.0068006516,0.0,0.20690137,1.7881393e-07
1.2040138e-05,0.0,3.5762787e-07,0.99999905,3.5762787e-07,0.0005505979,0.0012710989,2.9802322e-08,4.7057867e-05,1.4901161e-07
0.9924917,0.0,7.4505806e-07,1.7881393e-07,0.0,0.00036656857,0.0002708435,0.00013625622,0.0002040267,0.00023168325
0.021627128,0.0,1.1354685e-05,0.00019109249,0.0008788407,0.002067864,0.00076007843,6.1154366e-05,0.9503664,0.00012511015
2.9802322e-08,5.8323145e-05,4.7385693e-05,0.9524492,0.9975666,0.0021773279,0.94773674,4.172325e-07,0.012370467,4.798174e-06
0.9977838,0.0,3.5762787e-07,3.5762787e-07,0.0,0.0019396544,0.00048586726,1.847744e-06,1.3738871e-05,2.2917986e-05
3.1918287e-05,1.1920929e-07,1.2218952e-06,1.1652708e-05,1.1026859e-06,9.4503164e-05,0.0011657476,4.7683716e-07,0.99949896,0.00031897426
5.054474e-05,0.0,3.322959e-05,0.00068455935,3.093481e-05,9.906292e-05,0.0010523796,8.34465e-07,0.99951696,1.1265278e-05
7.289648e-05,0.0,3.427267e-06,0.0006982982,1.6987324e-06,0.0011199713,0.0037569106,7.048249e-05,0.99980414,4.8607588e-05
2.7269125e-05,0.99875987,0.00022822618,0.0002181828,8.100271e-05,0.0018918514,0.0007765889,1.7881393e-07,0.6978938,0.00047716498
0.00020298362,4.172325e-07,2.130866e-05,0.9956314,0.00066396594,0.021624982,0.0010843873,2.861023e-06,0.0010986924,2.6017427e-05
4.172325e-07,4.273653e-05,0.99175704,0.00021797419,5.4061413e-05,0.99997157,0.0058504343,2.5451183e-05,0.008064836,8.34465e-07
0.11219826,0.0,0.00016850233,8.940697e-07,0.0,0.9219425,0.0009147525,0.00032180548,0.00031787157,0.0003620088
0.0,8.493662e-06,0.011484504,2.3275614e-05,7.2419643e-06,0.9999999,0.0008729398,1.1026859e-06,0.0050622523,6.350875e-05
0.9561237,0.0,9.1165304e-05,8.34465e-07,3.5762787e-07,0.0012100339,0.0007195771,0.0027726889,0.0019619763,0.0020481348
5.605817e-05,0.0,2.3841858e-07,0.0006685853,0.0,0.00032028556,0.0010979474,3.6746264e-05,0.99986136,1.8537045e-05
0.0007824302,2.9802322e-08,4.0233135e-05,1.7881393e-07,0.0,0.0002770126,0.0011417866,2.9802322e-07,0.9987882,0.0012988746
0.0029280186,0.0,6.210804e-05,1.3411045e-06,2.9802322e-07,8.8214874e-05,0.0039304495,0.00023391843,0.9930121,0.00035187602
0.4599406,2.9802322e-08,1.013279e-06,9.536743e-06,0.0,0.0013674796,0.0008685887,0.00011643767,0.7508425,0.0006289184
0.0001770854,1.7881393e-07,9.447336e-06,7.2717667e-06,2.9802322e-08,0.0001733005,0.0025016963,4.172325e-07,0.9996898,0.000153929
0.00019276142,0.9711142,0.0060446262,0.0013884604,0.00044637918,0.005990714,0.01713875,1.385808e-05,0.0693872,0.062737405
0.00020605326,7.2717667e-06,0.00829953,0.99774766,0.015302271,0.002683133,0.0025475621,2.1755695e-06,0.16625679,1.707673e-05
0.9910623,0.0,1.1920929e-06,2.0861626e-07,0.0,0.0004632175,0.00024402142,5.6624413e-06,0.0070306063,0.0001475215
0.00061520934,0.0,4.2915344e-06,7.033348e-06,1.1920929e-07,0.00056937337,0.00053322315,6.943941e-06,0.9990599,5.221367e-05
0.17253652,0.0,2.6673079e-05,7.2062016e-05,5.0663948e-05,0.001011014,0.0010723174,2.7388334e-05,0.87157625,9.664893e-05
6.020069e-06,0.002002865,0.0461711,0.0016854107,2.1189451e-05,0.023702174,0.08498883,1.975894e-05,0.98917395,0.0013085902
0.087518275,0.00014737248,0.017131418,1.2636185e-05,1.7881393e-07,0.0032972693,0.6372821,0.00041770935,0.0026434362,0.054612905
0.17369077,8.940697e-08,1.2516975e-05,1.7881393e-07,2.413988e-06,0.0005416274,0.0034916997,1.7881393e-06,0.0010474026,0.9635273
0.9921874,0.0,5.9604645e-07,3.5762787e-07,8.940697e-08,0.00116992,0.00026637316,7.5101852e-06,0.00015160441,0.00069361925
0.9657737,0.0,7.1525574e-07,5.453825e-06,1.1920929e-07,0.00082564354,0.0007046759,5.608797e-05,0.0024873018,0.002344817
0.902231,0.0,4.798174e-06,8.940697e-08,5.9604645e-08,0.00025585294,0.0003463328,0.0039524734,0.007248044,0.0015369654
1.0609627e-05,0.18083358,0.8074862,7.557869e-05,4.762411e-05,0.015429556,0.055964917,7.030368e-05,0.006272346,0.0011413395
0.010259926,1.1920929e-07,0.10535675,3.9190054e-05,4.4703484e-06,0.00041279197,0.0013708174,7.408857e-05,0.98265916,0.0005726814
9.775162e-06,0.09691262,0.056576997,0.07890758,5.942583e-05,0.030995399,0.016152382,8.019805e-05,0.2195755,0.27660483
0.97998047,0.0,4.172325e-07,2.9802322e-07,1.2814999e-06,0.00016742945,0.00031420588,2.0861626e-07,0.0021036267,6.4343214e-05
0.86160195,0.0,2.3841858e-07,2.9802322e-07,8.34465e-07,0.00044745207,0.0003347695,2.3841858e-07,0.058909357,0.012718707
0.0,0.0002925694,0.3874218,0.99995416,0.09883678,0.025850385,0.20799714,5.9604645e-08,0.013787895,2.9802322e-07
9.059906e-06,0.99899375,0.00046777725,0.00039723516,3.963709e-06,0.008779913,0.00086170435,5.662441e-07,0.33720845,0.00015419722
0.000114917755,0.0,3.07858e-05,1.6987324e-06,1.1920929e-07,3.3438206e-05,0.0007508397,5.9604645e-08,0.9989969,5.5104494e-05
0.9933201,0.0,5.9604645e-07,2.0861626e-07,0.0,0.0015393496,0.0048876107,6.854534e-07,9.903312e-05,0.0006316304
3.9488077e-05,0.0,8.761883e-06,0.00876388,7.7188015e-06,0.00025486946,0.0038681328,1.4692545e-05,0.99686074,0.00037807226
0.00030261278,0.0,1.3977289e-05,4.2915344e-05,0.032434076,3.9219856e-05,0.0009935796,7.399917e-05,0.99871886,3.1888485e-06
0.9815844,0.0,6.854534e-07,8.940697e-08,0.0,0.00028160214,0.00046029687,5.5223703e-05,0.0021389425,0.00025594234
1.1920929e-07,6.318092e-05,0.0007892549,8.711219e-05,8.0019236e-05,0.99997467,0.0044318438,3.5464764e-06,0.7719569,0.00028312206
1.7881393e-07,0.8598442,0.13737822,0.007576853,0.0004310906,0.99995416,0.0018931925,5.632639e-06,0.45719227,7.95722e-06
0.023665428,2.0861626e-07,2.041459e-05,0.932562,1.3709068e-06,0.0024323761,0.0015829802,1.8119812e-05,0.00091829896,0.00028410554
0.97006524,0.0,2.3841858e-06,7.748604e-07,0.0,0.000115424395,0.0003424883,0.00056895614,0.0027253926,7.233024e-05
0.093144596,1.7881393e-07,0.0001835525,5.1259995e-06,5.9604645e-08,1.5735626e-05,0.0017890334,0.59012973,0.006131649,0.050524592
0.023227125,1.8924475e-05,0.8119086,2.7477741e-05,2.9802322e-06,0.0009138286,0.0008201599,8.6694956e-05,0.15409818,0.0003837645
0.45114726,0.0,3.3974648e-06,1.2516975e-06,3.606081e-06,9.164214e-05,0.00013247132,0.53013426,0.00017690659,0.0044534206
0.9975336,0.0,2.0861626e-07,5.9604645e-08,5.9604645e-08,0.0003632605,0.00043660402,5.751848e-06,8.401275e-05,0.0001744628
2.0861626e-07,0.0019582212,0.000338912,0.9994117,0.00076168776,0.00638023,0.4325105,2.3841858e-07,0.85617036,2.95043e-05
0.98690194,0.0,0.00036758184,6.2584877e-07,2.682209e-07,0.0012857616,0.00042283535,1.5079975e-05,6.0081482e-05,0.00027900934
0.011141092,0.0,0.00025483966,1.7881393e-06,1.0728836e-06,0.0011419654,0.0013088882,3.2186508e-05,0.99077433,0.0010230243
0.00016993284,1.6868114e-05,6.2584877e-07,1.1920929e-06,9.23872e-07,0.0017623007,0.9551264,1.0728836e-06,0.043062508,0.016078979
8.940697e-08,1.4901161e-07,1.9848347e-05,0.9999939,1.4483929e-05,0.0005414486,0.0074807703,1.1026859e-06,0.00065401196,5.5134296e-06
0.99318665,0.0,4.7683716e-07,1.4901161e-07,4.172325e-07,0.00063699484,0.0003657341,2.9802322e-07,0.0002091527,0.00025489926
0.998823,0.0,5.9604645e-08,8.940697e-08,0.0,0.00036519766,0.00042054057,1.4901161e-07,3.1352043e-05,2.259016e-05
1.3411045e-06,1.9401312e-05,0.0004557371,0.0002590418,0.0002603531,0.9999559,0.007071078,1.874566e-05,0.0034909546,0.0048012137
9.834766e-06,0.0,1.7791986e-05,5.2452087e-06,3.5762787e-07,0.00020185113,0.0017602146,0.0013724566,0.99899614,0.00019326806
4.172325e-07,2.3841858e-07,4.172325e-07,3.8176775e-05,0.0,9.083748e-05,0.653633,4.082918e-06,0.99990475,9.596348e-06
0.000259161,0.0,4.529953e-06,5.3048134e-06,3.5762787e-07,0.00019901991,0.001139909,5.2154064e-06,0.9994995,0.000246495
1.4573336e-05,8.6426735e-06,0.9924272,7.677078e-05,0.00018006563,0.004346609,0.15792495,2.4467707e-05,0.38080007,0.00061142445
0.99531496,0.0,1.1920929e-07,3.874302e-07,0.0,0.00046667457,0.00027149916,4.2915344e-06,0.00021639466,0.00045469403
1.7881393e-07,0.0,0.0,0.0,0.0,0.0,5.662441e-07,0.0,0.00017288327,0.99994856
0.04518631,0.0,0.0020132065,1.0043383e-05,0.98451746,0.00020825863,0.00078582764,2.3037195e-05,0.00010210276,9.75728e-05
0.9727613,1.1920929e-07,7.1525574e-07,5.9604645e-08,0.0,0.0016447604,0.0007534027,3.5762787e-07,0.001106739,0.016067952
0.31776178,2.8342009e-05,8.9883804e-05,0.0001412332,0.00022372603,0.005651623,0.013045937,0.000107467175,0.02346006,0.080002904
0.9924116,0.0,1.0728836e-06,2.3841858e-06,0.0,0.0010274947,0.0004287064,1.4007092e-06,0.0018504262,0.00011244416
6.1690807e-06,0.0,0.00018274784,2.9802322e-08,5.9604645e-08,5.543232e-06,0.00044164062,1.1920929e-07,5.1558018e-05,0.99993503
0.0014183819,0.0,1.6629696e-05,9.894371e-06,8.34465e-07,0.00040635467,0.0012485385,0.0052077174,0.9866911,0.0014136732
0.27335036,5.9604645e-08,4.7534704e-05,0.0072282255,3.6656857e-06,0.007754147,0.0011785328,5.7905912e-05,0.4823429,0.07913959
0.99581563,0.0,5.066395e-07,1.7881393e-07,0.0,0.00054752827,0.00072196126,8.940697e-08,4.6759844e-05,7.542968e-05
9.745359e-06,4.4703484e-07,2.0861626e-07,1.937151e-06,1.7881393e-07,0.0054828823,0.99950194,1.0728836e-06,0.0007673502,0.00021159649
1.1920929e-07,1.975894e-05,0.00038188696,0.0003964603,0.00018838048,0.9999999,0.0024199486,5.3942204e-06,0.10300624,2.2292137e-05
0.00031015277,5.364418e-07,2.9802322e-06,0.99974716,3.2782555e-07,0.0027684867,0.00725317,6.2584877e-07,0.00043925643,1.0728836e-05
0.9959592,0.0,6.2584877e-07,2.9802322e-07,9.834766e-07,0.0018194616,0.00042179227,1.0728836e-06,1.12354755e-05,0.00030440092
1.8060207e-05,2.9802322e-08,1.4901161e-07,0.9999908,1.1920929e-07,0.00017184019,0.0010017753,2.9802322e-08,0.00085890293,1.2785196e-05
4.7385693e-06,0.992844,0.00031396747,0.9976759,0.0012813509,0.006535977,0.00031402707,2.9802322e-07,0.30689585,2.0593405e-05
0.970611,0.0,1.6391277e-06,1.4901161e-07,2.682209e-07,0.00046041608,0.0006939173,0.00065118074,0.00012782216,0.0045763254
1.8000603e-05,1.1444092e-05,0.0020378828,0.012407333,0.25084516,0.9999069,0.009754926,0.0003450215,0.003698796,0.00031086802
2.3245811e-05,0.0,7.4505806e-07,0.999997,0.0,0.00052288175,0.0017649829,8.940697e-08,2.5570393e-05,8.940697e-08
9.059906e-05,5.9604645e-08,7.659197e-06,9.23872e-07,0.0,0.00011155009,0.0010862947,4.1037798e-05,0.9996544,5.978346e-05
0.0023813248,1.1920929e-07,4.2915344e-06,0.981827,2.9802322e-08,0.0006878078,0.0015071034,1.5318394e-05,0.106725186,0.0002257824
1.2218952e-05,0.000107973814,0.00032693148,0.00043830276,2.95043e-06,2.041459e-05,0.001493007,0.0,0.012169778,0.9552506
6.0498714e-06,0.0,0.0,0.9999931,0.0,0.00022748113,0.0012864172,1.1622906e-06,4.029274e-05,1.1920929e-07
0.00044733286,1.347065e-05,3.5762787e-07,9.119511e-06,2.9802322e-07,0.004137844,0.7972441,2.8371811e-05,0.8069676,0.002002865
0.9808545,0.0,4.3809414e-06,1.013279e-06,2.3841858e-07,0.0017887652,0.00038006902,4.440546e-06,0.0009506345,0.0036796033
0.99805444,0.0,2.682209e-07,7.748604e-07,0.0,0.00055488944,0.00033447146,2.3245811e-06,3.799796e-05,8.59499e-05
0.2635194,1.1920929e-07,0.00021517277,5.2660704e-05,2.0861626e-07,0.00085806847,0.0018196702,0.101459,0.038338125,0.009809762
0.00013464689,3.3676624e-06,3.5643578e-05,0.00077205896,0.0,0.00071051717,0.9901752,0.05253148,0.00030955672,4.646182e-05
2.9802322e-07,5.9604645e-08,1.6987324e-06,0.9997215,1.3321638e-05,0.00038456917,0.0073744357,6.2584877e-07,0.9956214,2.9802322e-08
8.910894e-06,0.0023095012,0.010169357,1.6182661e-05,0.00020572543,0.99953127,0.010830224,5.453825e-06,0.10067853,0.0019515157
0.005651176,2.9802322e-08,5.841255e-06,6.0915947e-05,4.082918e-06,0.001340419,0.0055012405,9.179115e-06,0.92805016,0.005877197
2.0861626e-06,0.004877925,0.441475,0.022429466,0.00013536215,0.0011177361,0.59317267,2.026558e-06,0.9763167,0.0005530715
0.060108393,0.0,5.662441e-07,8.940697e-08,8.940697e-08,1.0102987e-05,4.595518e-05,0.94559103,0.00029107928,2.3573637e-05
0.0025052726,5.9604645e-08,4.2021275e-05,4.053116e-06,4.529953e-06,4.3541193e-05,0.0009151399,1.9967556e-06,0.9942993,0.00028839707
0.97878087,0.0,3.6746264e-05,1.6391277e-06,8.940697e-08,0.0008043945,0.00043556094,0.0030642748,0.00021031499,0.0007866919
0.9800316,0.0,2.9802322e-08,5.364418e-07,5.9604645e-08,0.00067585707,0.00056919456,5.066395e-07,0.023449898,0.000446558
0.0029332042,2.682209e-07,0.99814135,7.4863434e-05,6.2584877e-07,0.00042548776,0.0013881922,9.4771385e-06,0.0077821016,3.9070845e-05
0.98887366,0.0,6.2584877e-06,2.9802322e-08,2.9802322e-08,0.0006161332,0.00071167946,0.0001642108,0.00070264935,0.00092306733
3.0219555e-05,2.9802322e-08,7.748604e-07,6.225705e-05,3.2782555e-07,0.00019988418,0.002603799,1.5765429e-05,0.9921783,0.0033187568
0.80432963,0.0,6.914139e-06,3.784895e-06,5.9604645e-08,0.0022922158,0.00083750486,1.3709068e-05,0.19485423,0.0035087466
0.9480443,2.9802322e-08,0.00027161837,8.46386e-06,0.00020349026,0.001088351,0.00034478307,2.4944544e-05,0.0017414987,0.0064617097
0.010933369,5.9604645e-08,5.096197e-06,1.66893e-05,2.259016e-05,0.00030988455,0.0029162467,2.3841858e-07,0.8997112,0.04184264
0.023169696,0.0,6.854534e-07,1.1175871e-05,1.0728836e-06,0.00076550245,0.0005334914,8.6426735e-07,0.98501396,0.004297167
5.722046e-06,8.046627e-07,0.9994688,0.002842933,9.828806e-05,0.0003838539,0.02167967,2.82228e-05,0.00845325,0.0044234693
1.7493963e-05,0.0,3.5762787e-07,8.046627e-07,0.00022035837,0.00037300587,0.0025493205,1.4901161e-07,0.9978643,4.7385693e-06
2.759695e-05,6.005168e-05,0.00090903044,0.000269413,0.7456183,0.0028919876,0.1636489,0.0012897253,0.044050068,0.0663082
0.12774688,0.0,5.066395e-07,1.0341406e-05,1.4901161e-07,0.00055256486,0.00061419606,4.7683716e-07,0.94828904,0.0059725046
6.830692e-05,0.0,1.1324883e-06,2.3543835e-06,0.0,2.8312206e-05,0.0010582507,5.364418e-07,0.99991345,5.155802e-06
0.9938123,0.0,4.172325e-07,2.0861626e-07,0.0,0.0013288558,0.0004720986,2.9802322e-07,0.0006104708,0.0016013086
0.0062289834,2.9802322e-08,3.1888485e-06,7.2181225e-05,2.0861626e-06,0.00035360456,0.0009472966,1.6093254e-06,0.99561393,0.0004259944
5.9604645e-08,9.953976e-06,0.12424034,4.36306e-05,0.00017413497,0.999969,0.0031009614,3.4570694e-06,0.9819961,1.66893e-06
0.18679559,5.9604645e-08,1.0728836e-06,2.2053719e-06,0.0,0.0033838153,0.0025475323,1.9460917e-05,0.8331518,0.0024513304
0.9628711,0.0,1.7881393e-07,3.33786e-06,0.0,0.0005699098,0.0004887283,4.351139e-05,0.027341694,0.00069350004
0.96815646,0.0,3.516674e-06,6.29127e-05,1.6093254e-06,0.0025918186,0.0006236732,1.1742115e-05,0.0012820959,0.0028472543
0.00025492907,0.0,6.7949295e-06,1.7374754e-05,2.0861626e-07,0.00039592385,0.0015782118,1.013279e-05,0.99960744,0.00029593706
1.7911196e-05,0.0,0.99997157,6.943941e-06,1.4901161e-07,0.00021213293,0.00063481927,4.5984983e-05,0.0014058352,1.847744e-06
0.99238044,0.0,8.940697e-07,3.8444996e-06,2.9802322e-08,0.0012229085,0.00028666854,1.4901161e-07,9.62317e-05,0.0005694926
0.96796453,0.0,7.224083e-05,1.1324883e-06,3.874302e-07,0.0015699267,0.0004261434,5.108118e-05,0.0016281009,0.0072956085
0.97107047,0.0,2.3841858e-07,0.0,5.9604645e-08,5.8084726e-05,0.0001180172,0.0012527704,0.00013685226,0.00011613965
0.0,3.8594007e-05,0.91403687,0.00031223893,3.3169985e-05,0.99037385,0.009026587,2.0861626e-06,0.9951563,2.95043e-06
0.9685521,0.0,3.7252903e-05,9.834766e-07,2.5331974e-06,0.00047573447,0.00027394295,0.00012025237,0.001137197,0.00022664666
3.8444996e-06,0.96703327,0.00010949373,0.0033518076,3.5762787e-07,0.0050289333,0.0045591593,5.662441e-07,0.98521614,0.0001424551
2.3841858e-07,0.98770726,0.0067224205,3.4183264e-05,1.9907951e-05,0.6915737,0.00020229816,1.1920929e-07,0.26203397,9.530783e-05
0.26227933,0.0,4.172325e-07,1.758337e-06,2.9802322e-08,0.00071558356,0.0008327663,4.5001507e-06,0.69811106,3.6746264e-05
6.2584877e-07,5.9604645e-08,0.0027216077,0.99999,0.1498473,0.0007689893,0.0038272142,2.3841858e-07,0.0037522316,0.0
0.95357764,0.0,2.8133392e-05,8.761883e-06,3.2782555e-07,0.00029608607,0.0005675554,2.3841858e-05,0.12617001,7.9512596e-05
0.00017163157,0.0,4.452467e-05,1.2814999e-06,5.9604645e-08,0.000790596,0.01036945,2.9802322e-07,0.9994216,0.00013321638
0.00042241812,0.0002462566,2.3841858e-06,6.854534e-07,3.5762787e-07,0.0005388856,0.98025954,4.053116e-06,0.002701074,0.00019270182
1.6897917e-05,0.0,3.2782555e-07,0.9999981,8.940697e-08,0.0013113022,0.0013298094,1.7881393e-07,5.581975e-05,8.940697e-08
2.9474497e-05,3.606081e-06,5.9604645e-08,4.261732e-06,8.940697e-08,0.0023988485,0.99825835,1.5079975e-05,0.0003824234,0.0011629164
0.7054977,0.0,5.364418e-07,1.5199184e-06,1.7881393e-07,0.00045001507,0.00045499206,2.1606684e-05,0.28945845,0.0016014874
0.7456935,0.0,0.0009223819,5.9604645e-08,2.2947788e-06,0.0004440844,0.00056526065,0.038933188,0.00036111474,0.0016464293
5.9604645e-08,8.8751316e-05,0.0076107383,0.0011765957,0.0011928082,0.99995846,0.0019805133,1.001358e-05,0.004668653,0.00031518936
1.9997358e-05,0.0,2.4735928e-06,4.8547983e-05,8.940697e-08,9.474158e-05,0.0030344725,3.2782555e-07,0.99990416,1.5288591e-05
5.096197e-06,0.00014606118,0.032966852,0.91399163,7.522106e-05,0.00052559376,0.006857246,1.7881393e-07,0.9789201,2.3066998e-05
0.32698634,3.2782555e-07,1.5199184e-06,8.606911e-05,1.1622906e-06,0.00051125884,0.0011526942,4.7683716e-07,0.3726624,0.21653518
8.7320805e-06,0.0073039234,8.034706e-05,0.00030595064,7.867813e-06,0.0012545586,0.7054968,8.940697e-08,0.9791596,0.0020668805
0.9844531,0.0,2.8431416e-05,6.2584877e-07,1.1920929e-07,0.0017744601,0.001434505,0.0001449883,4.9620867e-05,0.0019629002
0.9797385,0.0,3.0696392e-06,1.0728836e-06,8.940697e-08,0.00048473477,0.00036403537,0.0046841204,0.000110566616,0.0029479563
0.00038266182,1.1920929e-07,6.854534e-07,0.99996793,1.66893e-06,0.0027033687,0.0012359321,0.0,0.00027781725,4.1127205e-06
0.9974706,0.0,4.7683716e-07,1.1920929e-07,0.0,0.001976192,0.0007341206,3.606081e-06,4.4047832e-05,5.415082e-05
0.04410839,1.6748905e-05,0.00042289495,1.5497208e-05,9.274483e-05,0.00085681677,0.0054790974,2.115965e-06,0.7261442,0.36040944
0.0031460524,0.0,1.2814999e-06,6.276369e-05,9.834766e-07,3.1530857e-05,0.0002771914,0.97983074,0.06358382,0.007430315
5.236268e-05,0.0,1.7881393e-07,3.477931e-05,0.0,3.0249357e-05,0.00047677755,3.7789345e-05,0.9999463,7.599592e-06
0.00024673343,0.0,2.682209e-07,0.99986374,8.940697e-08,0.00043961406,0.0011799634,2.9802322e-08,0.00034576654,4.798174e-06
2.0861626e-07,0.97091496,0.006420076,0.0001629591,0.71304715,0.002765894,0.0010435283,1.758337e-06,0.039773732,7.852912e-05
2.2560358e-05,1.7881393e-07,0.000115305185,7.4505806e-07,1.0728836e-06,0.0004402697,0.0011123717,8.6426735e-07,0.00063449144,0.99899256
5.748868e-05,0.0,5.9604645e-08,0.9999828,2.0861626e-06,0.0008265972,0.00039172173,0.0,0.0003079772,5.662441e-07
5.9723854e-05,8.940697e-08,1.0728836e-06,0.9999908,7.978082e-05,0.0007202029,0.0023259819,0.0,0.006554574,9.23872e-07
0.0012666881,0.0,6.2584877e-07,6.7681074e-05,4.1127205e-06,0.00028452277,0.0012497008,6.1392784e-06,0.9986843,7.724762e-05
0.64602625,5.9604645e-08,7.033348e-06,8.910894e-06,3.5762787e-07,0.0009691715,0.0017383397,1.770258e-05,0.3652875,0.0009942353
0.98887074,0.0,8.34465e-07,2.9802322e-08,2.9802322e-08,0.00017783046,0.0001475215,0.00035846233,0.00017991662,0.0014025271
5.543232e-06,2.2351742e-05,5.7429075e-05,0.0013488233,2.5480986e-05,0.0026395917,0.87825716,0.01380989,0.00026914477,0.048684686
0.06574321,8.940697e-08,7.8082085e-06,8.9108944e-05,5.3942204e-06,0.0011637807,0.0011069775,9.834766e-07,0.9016112,0.006111324
0.9946935,0.0,5.9604645e-08,8.940697e-08,1.7881393e-07,0.0002683699,0.00019487739,8.940697e-08,0.00011458993,0.00350973
0.9893294,0.0,1.1920929e-06,3.8444996e-06,3.2782555e-07,0.0004118979,0.0012334883,1.4305115e-06,0.0003027916,0.0010921657
9.855628e-05,0.0,4.9173832e-05,3.540516e-05,2.2649765e-06,0.0001141727,0.00032040477,0.99661314,0.0035068989,0.007582575
0.95008737,0.0,1.6003847e-05,1.1920929e-07,0.0,0.0050515234,0.0004990697,6.684661e-05,0.0044330657,0.0024416447
0.10493162,0.0,6.645918e-06,3.412366e-05,2.9802322e-08,6.890297e-05,0.00015437603,0.9357749,0.00042656064,0.0015192926
3.2484531e-06,3.5762787e-07,0.993027,5.4836273e-06,8.34465e-07,0.000112622976,0.000803411,8.404255e-06,0.9900575,3.3974648e-06
5.349517e-05,8.940697e-08,0.9997986,2.5898218e-05,5.6803226e-05,0.00075623393,0.0010158122,0.00047501922,0.15345898,1.0818243e-05
0.99416924,0.0,9.319186e-05,8.940697e-08,8.940697e-08,0.00024673343,0.0004338622,1.8179417e-06,1.7821789e-05,0.00023645163
0.0,5.364418e-07,0.0001514256,0.0002785325,6.443262e-05,1.0,0.00048166513,1.0848045e-05,0.0030171871,9.23872e-07
0.17869821,0.0,6.136298e-05,0.0,0.0,1.2755394e-05,0.00035220385,0.007026851,7.31647e-05,0.29955614
0.98016846,0.0,6.4969063e-06,7.4505806e-07,8.940697e-08,0.0032987893,0.0005354881,0.00033691525,0.00063607097,0.0046035945
0.00021570921,0.0022343695,0.83623517,0.004355043,0.0010865033,0.008300513,0.10841614,4.887581e-06,0.14138621,0.01209116
1.3232231e-05,2.9802322e-08,0.98766977,0.55211407,0.00010293722,0.0017849803,0.004071057,0.028145462,0.00028675795,5.340576e-05
0.0,0.23884687,1.0818243e-05,0.99994767,0.02746728,0.041610897,0.6010137,8.940697e-08,0.013124883,3.7789345e-05
2.2053719e-06,0.00012758374,0.005019814,0.9995997,0.06674239,0.0033373237,0.0045084655,2.861023e-06,0.08248198,0.00014325976
0.00047630072,0.002453059,0.0,0.0016536117,0.0,1.2904406e-05,0.0016773641,2.9802322e-08,0.0045087337,0.8150407
1.2606382e-05,8.076429e-06,0.9125892,0.9963825,1.1146069e-05,0.0015693307,0.006798744,6.2584877e-07,0.002403468,1.50203705e-05
0.99063253,0.0,8.195639e-06,6.6161156e-06,2.9802322e-08,0.0013262033,0.0015018582,3.990531e-05,0.00029847026,0.0010358691
0.0062229335,0.0,2.9802322e-06,1.40964985e-05,0.9489471,0.00047644973,0.00041902065,1.1026859e-06,0.1688543,0.000104129314
8.940697e-08,0.5189974,0.00019168854,0.0016259849,2.9802322e-07,0.00092989206,0.014535427,0.0,0.9994319,5.453825e-06
2.0593405e-05,0.0,0.0,5.185604e-06,2.9802322e-08,0.00011152029,0.0012665689,2.95043e-06,0.99960715,0.0006814003
0.9208795,0.0,0.00016131997,4.2915344e-06,0.0,0.0023705661,0.0010765791,0.0072870553,2.4348497e-05,0.0045782626
0.96090645,0.0,1.4603138e-06,7.1525574e-07,1.8417835e-05,0.0003349483,0.00020128489,2.3841858e-07,0.0009783506,0.01675722
2.9802322e-08,0.023243248,1.0728836e-06,0.9998301,3.1590462e-06,0.0007379651,0.0004042387,8.940697e-08,0.9927457,2.9802322e-08
0.8698781,5.9604645e-08,8.314848e-06,6.854534e-07,1.1920929e-06,0.00066676736,0.0005080104,3.8444996e-06,0.10262239,0.0153923035
3.2007694e-05,3.874302e-07,0.9998505,0.0588035,1.1920929e-07,0.0005904138,0.001106739,4.428625e-05,0.0005888343,1.1384487e-05
2.4467707e-05,1.7881393e-07,0.9996238,0.007245451,0.00012433529,0.0023480654,0.0045670867,6.556511e-05,0.28122753,9.825826e-05
0.88190997,0.0,2.0891428e-05,7.748604e-07,5.066395e-07,0.0008864403,0.00035840273,6.484985e-05,0.018613398,0.004083276
0.0014050901,0.0,2.2113323e-05,5.811453e-06,8.046627e-07,8.440018e-05,0.00037950277,6.735325e-05,0.9982139,0.00018838048
0.17555675,0.0044533014,0.45217413,1.0639429e-05,2.3841858e-06,0.006258011,0.15384924,8.1926584e-05,0.0025106668,0.00035986304
4.440546e-06,0.9988061,0.0003001988,0.0048333704,9.7066164e-05,0.008997291,0.0004298091,1.4901161e-07,0.58218014,8.878112e-05
0.9759394,0.0,0.0008740425,4.887581e-06,1.2516975e-06,0.001704216,0.0008240342,9.208918e-06,0.00334993,0.0010056496
0.9948349,0.0,2.8312206e-06,2.115965e-06,0.0,0.0014962256,0.0034845471,1.9967556e-06,0.00029832125,6.386638e-05
0.0742223,0.0,0.13750601,1.9729137e-05,6.9737434e-06,0.0010541975,0.00068333745,4.9114227e-05,0.77300847,0.00018748641
5.2452087e-06,8.940697e-06,7.4505806e-07,0.999992,3.117323e-05,0.001826644,0.0065699816,1.7881393e-07,0.34655058,1.5497208e-06
0.057356447,0.0,7.301569e-06,1.1920929e-07,0.0,0.00070014596,0.00032556057,3.606081e-06,0.93101466,0.001631856
0.5171506,0.0,3.4868717e-06,1.2904406e-05,5.364418e-07,0.00061267614,0.003366977,8.3088875e-05,0.7100548,0.00038322806
1.758337e-06,0.9984781,0.00011152029,0.0055609345,1.7881393e-07,0.008249879,0.00034981966,2.3841858e-07,0.8827348,0.00022789836
4.798174e-06,5.9604645e-08,5.662441e-07,0.9999988,1.4901161e-07,0.00060656667,0.0038136244,0.0,0.00055131316,2.0861626e-07
0.9874934,0.0,5.364418e-07,8.940697e-08,0.0,0.0001911223,0.00025722384,0.00016364455,3.167987e-05,0.00027659535
0.98998034,0.0,6.2584877e-07,1.1920929e-07,3.5762787e-07,0.0014339387,0.0012669563,7.599592e-06,0.00039604306,0.0013650656
0.9925154,0.0,2.7120113e-06,5.9604645e-08,0.0,0.0011951327,0.00079122186,1.6391277e-06,1.6778708e-05,6.887317e-05
0.0026215613,1.4901161e-07,9.089708e-06,8.612871e-06,1.1920929e-07,0.001142174,0.022661567,1.7285347e-06,0.08835617,0.77233946
6.2584877e-07,0.99716246,2.297759e-05,0.00054967403,2.682209e-07,0.0009950697,0.00039497018,0.0,0.9990247,2.8312206e-06
7.4505806e-07,5.3346157e-06,0.003029853,6.765127e-05,0.00013834238,0.99999845,0.0044668615,5.942583e-05,0.43406397,3.8325787e-05
0.9910286,0.0,5.9604645e-08,9.834766e-07,0.0,0.0013312697,0.0006787777,4.4703484e-07,0.0009869933,0.0003222823
3.993511e-06,0.0003286004,0.90783954,0.0010434985,0.017172486,0.007362455,0.16490042,0.0009786487,0.009694457,0.004509777
0.007355273,1.8775463e-06,0.0013576448,2.592802e-06,7.1525574e-07,0.0009741187,0.0024673045,0.00011339784,0.0013849437,0.97722137
1.7106533e-05,0.0,0.001276046,5.00679e-05,0.9139743,1.1503696e-05,0.0026144087,1.9967556e-06,0.9991057,2.1785498e-05
6.0379505e-05,5.698204e-05,0.0001360476,0.000120311975,3.7550926e-06,0.9999919,0.06334975,9.775162e-06,0.0060023367,0.00018841028
0.9307086,3.3676624e-06,2.1338463e-05,2.56598e-05,9.447336e-06,0.0011890531,0.00054466724,4.172325e-07,0.056107968,0.002399087
0.75969064,1.847744e-06,1.2308359e-05,1.1920929e-07,0.0,0.00082314014,0.001829654,2.6524067e-06,5.1796436e-05,0.28818882
5.275011e-06,0.9987321,2.2411346e-05,0.0011660457,7.4505806e-06,0.0020367205,0.00031903386,0.0,0.036253333,0.0010740757
0.9945202,0.0,2.0861626e-07,2.0861626e-07,0.0,0.0020440817,0.002396375,1.9669533e-06,4.8279762e-05,4.7266483e-05
0.0027258992,0.0,7.030368e-05,0.0005083084,7.212162e-06,0.00022932887,0.00067296624,3.8951635e-05,0.9954767,0.00038790703
9.119511e-06,1.8715858e-05,9.262562e-05,7.748604e-07,2.2649765e-06,0.0085840225,0.9653004,3.0696392e-06,0.6784871,0.010248125
0.9969617,0.0,1.1920929e-07,8.940697e-08,0.0,0.00039848685,0.00027549267,2.503395e-06,0.0003297329,8.2701445e-05
4.7683716e-07,5.9604645e-08,1.31726265e-05,9.23872e-07,1.7881393e-07,0.9999968,0.0011016428,5.662441e-07,0.032915354,3.886223e-05
0.34503675,8.940697e-07,0.7333131,1.4007092e-06,2.3841858e-07,0.00032004714,0.0008222759,0.002955854,0.00013333559,0.00025179982
0.00038465858,1.7881393e-07,2.3841858e-07,0.9999216,2.9802322e-08,0.0005790591,0.00043994188,2.9802322e-08,0.0034664273,4.3213367e-06
0.21517706,0.0,0.00060099363,3.7252903e-06,1.0728836e-06,0.00043970346,0.002108097,0.015460491,0.007826984,0.60970247
0.71562606,0.0,2.0861626e-07,1.6391277e-06,3.874302e-07,0.0002387464,0.0005270541,5.185604e-06,0.7637012,0.00033217669
0.012642264,1.5377998e-05,1.41859055e-05,1.3560057e-05,1.937151e-06,0.0011366308,0.66912585,8.6426735e-07,7.212162e-06,0.0017950535
0.0013150871,2.9802322e-08,3.5762787e-07,1.6659498e-05,6.556511e-07,2.6673079e-05,0.0003222227,2.9802322e-07,0.99881285,9.202957e-05
6.645918e-05,0.99614,6.6667795e-05,0.00029090047,0.0002808571,0.0025390089,0.00061127543,2.0861626e-07,0.039696753,0.0033312738
0.9947339,0.0,3.5762787e-07,1.2606382e-05,0.0,0.0020014346,0.0008470416,5.155802e-06,0.00016126037,0.00011768937
0.032651335,3.8146973e-06,3.322959e-05,3.400445e-05,9.23872e-07,0.00016105175,0.0021911263,2.0861626e-07,0.7942697,0.043447703
0.9924997,0.0,1.7881393e-07,5.9604645e-08,0.0,0.0016590655,0.0005701184,4.053116e-06,0.0011396706,0.0007070601
0.2874874,1.5199184e-06,0.93728584,4.068017e-05,5.364418e-07,0.00065514445,0.00085544586,0.00039213896,0.00010505319,0.00015634298
0.9308742,0.0,7.301569e-06,2.2053719e-06,0.0034827292,0.0011380017,0.0024647713,8.106232e-06,5.3972006e-05,0.0050581694
0.9845368,0.0,3.0994415e-06,1.4901161e-07,0.0,0.001058042,0.00041812658,0.00045278668,0.00026509166,0.0010625422
0.009467274,1.4275312e-05,1.0341406e-05,0.00016114116,8.022785e-05,0.001801163,0.89496005,2.476573e-05,9.581447e-05,0.023979217
0.88529056,1.5497208e-06,0.04766497,7.748604e-07,6.854534e-07,0.00047832727,0.0005425513,0.00047898293,0.00045880675,0.004735559
0.87015563,0.0,8.940697e-08,3.874302e-07,0.0,2.1666288e-05,0.000109910965,0.023922712,6.094575e-05,0.00030195713
0.0,1.1920929e-07,5.8591366e-05,0.00021958351,8.85129e-06,0.99999934,0.0031691194,4.1902065e-05,0.9764318,1.2218952e-06
1.4901161e-06,2.9802322e-08,1.7374754e-05,0.9999994,1.886487e-05,0.00037023425,0.0012624562,1.7881393e-07,9.825826e-05,1.7881393e-07
0.007761389,0.0,8.583069e-06,3.874302e-07,3.5762787e-07,0.00014001131,0.00041869283,8.34465e-07,0.96977985,0.0071787536
0.99703294,0.0,1.1026859e-06,0.0,0.0,0.0014881492,0.0005787611,4.172325e-07,0.0005299449,0.00040891767
9.277463e-05,5.364418e-07,0.99487555,0.00017911196,0.027680546,0.00086829066,0.0029640794,7.5250864e-05,0.00020995736,2.1904707e-05
2.9802322e-08,1.1265278e-05,0.9959421,0.99879634,0.0010530055,0.011811852,0.195393,5.364418e-07,0.00077214837,1.1920929e-07
0.9841331,2.9802322e-08,7.4505806e-07,2.3841858e-07,2.682209e-07,0.00025692582,0.00051754713,7.4505806e-07,0.0023157597,0.015569419
6.377697e-05,2.9802322e-08,0.0019056797,3.090501e-05,7.748604e-07,8.901954e-05,0.002408713,0.00021511316,0.9994993,5.0127506e-05
1.1026859e-05,2.1457672e-06,7.748604e-07,1.8775463e-06,8.940697e-08,0.0032427907,0.9989903,8.34465e-07,6.377697e-05,0.0002773106
5.3048134e-05,2.2679567e-05,0.99515176,0.0036285818,0.0013525486,0.0014995635,0.0135214925,1.5228987e-05,0.3212455,0.00014340878
0.0062140822,0.0,1.2367964e-05,3.0100346e-06,1.3113022e-06,0.0001257062,0.00026535988,8.85129e-06,0.99623734,8.7320805e-06
2.3841858e-07,0.9661875,0.0015790462,0.0020566285,0.000372231,0.99477136,0.00802353,1.5199184e-06,0.092889905,2.0682812e-05
2.9802322e-07,0.0,3.811717e-05,0.9999883,0.0003964305,0.00073847175,0.03332928,5.9604645e-08,0.0028255582,5.155802e-06
2.9802322e-08,0.9990894,3.3318996e-05,0.99892026,9.328127e-06,0.011764556,0.004501611,0.0,0.009322941,1.3560057e-05
0.5885037,0.0,2.9802322e-07,3.4868717e-06,0.0,0.00063309073,0.0009639263,0.0014310777,0.44665465,0.00024122
1.4662743e-05,1.5884638e-05,0.00025042892,5.0336123e-05,8.046627e-06,0.99999917,0.00079119205,0.00059342384,0.036449313,5.990267e-06
0.9850102,0.0,1.4901161e-06,2.0861626e-07,2.8014183e-06,0.00038444996,0.0003684759,6.6667795e-05,0.001464963,0.00082948804
8.940697e-08,0.00019815564,0.96464586,0.0027837157,0.0013896823,0.9996729,0.0061239004,4.735589e-05,0.078307986,2.5451183e-05
0.009322286,0.0,3.5762787e-07,0.00030875206,0.0,0.0033539236,0.001205951,0.0035994947,0.97757196,0.00048398972
2.9802322e-08,2.0861626e-07,4.7683716e-07,0.9999901,0.21875867,0.00060355663,0.0034601688,9.834766e-07,0.0003322959,6.6161156e-06
4.2557716e-05,8.940697e-08,4.7683716e-07,8.314848e-06,0.0,9.101629e-05,0.0006957352,1.7881393e-07,0.9999156,6.657839e-05
0.94804835,0.0,4.7385693e-06,1.7732382e-05,1.847744e-06,0.0012984574,0.00044479966,9.3102455e-05,0.002388209,0.053525567
1.3411045e-06,1.1920929e-07,8.940697e-08,0.9999979,0.0017014742,0.0018992126,0.0005902648,2.9802322e-08,0.013086855,6.854534e-07
0.9397253,0.0,2.8640032e-05,2.7060509e-05,1.6391277e-06,0.006819576,0.00090014935,3.3706427e-05,0.06514722,0.008276731
3.1888485e-06,0.0,8.940697e-08,0.0,0.0,8.940697e-08,1.0550022e-05,0.0,7.3611736e-06,0.9999902
0.0,5.0246716e-05,2.3245811e-06,0.99997604,7.1525574e-07,0.0037187934,0.9758107,2.682209e-07,0.00013536215,2.0861626e-07
0.0,2.6851892e-05,0.0006606281,7.253885e-05,0.2941751,0.99999964,0.0014368892,0.00051504374,0.00078719854,9.864569e-06
0.9888451,0.0,5.3048134e-06,5.662441e-07,3.5762787e-07,0.010883838,0.0010056198,3.993511e-06,3.4481287e-05,0.0002629459
7.748604e-07,0.0,0.0,0.0,0.0,5.9604645e-08,2.6524067e-06,0.0,2.9802322e-06,0.9999943
0.0046473145,0.0,6.2584877e-07,3.901124e-05,3.0100346e-06,0.0005505383,0.002575785,4.1127205e-06,0.99552345,3.7819147e-05
0.0005004704,0.0,3.5762787e-07,4.5359135e-05,5.9604645e-08,0.00019529462,0.0010342002,8.940697e-08,0.99900377,0.0001835823
0.058451384,0.0,2.0861626e-07,4.172325e-07,2.0861626e-07,0.00015306473,0.00020542741,2.2649765e-06,0.9734067,0.0004992187
0.0072905123,0.00028145313,2.2947788e-05,6.735325e-05,3.993511e-06,0.0065771937,0.620873,1.1950731e-05,0.0008096993,0.0017046034
0.031900793,0.0,2.2530556e-05,9.983778e-05,5.364418e-07,0.0006747842,0.0038024485,0.31729865,0.0030940175,0.0078059137
0.0024006963,0.0001475513,0.7446895,1.66893e-06,1.3411045e-06,0.00080001354,6.02901e-05,0.002164662,0.0024089217,0.00089496374
0.00047415495,0.0,5.9604645e-08,6.2584877e-07,0.0,0.0004723668,0.001673311,2.682209e-07,0.99919635,3.620982e-05
2.0503998e-05,0.9960114,0.0011763871,0.00039598346,7.599592e-06,0.004843384,0.002261728,1.6093254e-05,0.0018194616,0.0007418394
1.1920929e-07,0.0020379722,0.00032177567,0.9998945,0.018164575,0.0025455058,0.006819755,2.9802322e-08,0.17209712,4.0233135e-06
0.008602321,0.00027367473,0.00032889843,4.759431e-05,3.1501055e-05,8.150935e-05,0.00025105476,1.1920929e-07,0.021101922,0.8331084
0.1524105,0.0,2.0861626e-06,1.1920929e-07,0.0,9.953976e-06,0.00013279915,0.9367373,3.3974648e-05,2.8163195e-05
5.4240227e-06,4.7683716e-07,6.4074993e-06,0.99999356,0.0005642772,0.0013765395,0.001837194,5.364418e-07,0.18188336,2.682209e-07
0.9324775,4.172325e-07,6.648898e-05,2.682209e-07,2.413988e-06,0.00028926134,0.00077566504,5.3852797e-05,0.047109812,0.005373895
0.98907727,0.0,1.090765e-05,1.5258789e-05,0.0,0.0012048483,0.00034961104,2.5629997e-06,0.0009686351,0.00024089217
0.9894952,0.0,3.7550926e-06,4.917383e-06,8.940697e-08,0.0011797547,0.00045585632,5.057454e-05,0.000682801,0.0009329915
0.902473,0.0,2.9802322e-07,1.1920929e-07,0.0,0.0017153025,0.0022123456,5.066395e-07,0.04219109,0.017444134
4.172325e-07,2.95043e-06,0.5396761,0.00060778856,0.965411,0.010425955,0.0030323267,2.2351742e-06,0.99797994,1.7285347e-06
2.2649765e-06,4.7683716e-07,0.0014877915,3.7908554e-05,7.56979e-06,0.9999999,0.0024052858,0.0009458363,0.012752891,7.1525574e-07
0.98651457,0.0,4.172325e-07,1.9729137e-05,7.1525574e-07,0.002451241,0.0013431013,3.1292439e-06,0.00063732266,0.0061381757
0.76123905,0.0,4.827976e-06,3.3974648e-06,3.9041042e-06,0.00056925416,0.0002452731,3.0010939e-05,0.0002709329,0.3790701
0.99370885,0.0,3.5762787e-07,4.7683716e-07,2.9802322e-07,0.0009482205,0.0006879568,2.965331e-05,9.304285e-05,0.00083348155
1.7881393e-07,0.0,0.0,0.0,0.0,0.0,5.662441e-07,0.0,0.00017288327,0.99994856
0.00070241094,0.0009770691,0.14926147,0.00046676397,1.4841557e-05,0.0018081367,0.069989026,3.2931566e-05,0.9963255,0.00043660402
0.0037099123,1.3411045e-06,0.8969351,4.2647123e-05,1.3113022e-06,0.00092855096,0.00033318996,3.7550926e-06,0.002040714,0.00071811676
0.004170716,0.0001142323,4.9442053e-05,1.1324883e-06,1.168251e-05,0.0048743784,0.60529,6.3478947e-06,0.7977264,0.0029132068
0.007428676,2.9802322e-08,8.407235e-05,3.6746264e-05,0.2838378,0.5117932,0.00013589859,7.626414e-05,0.0037484467,0.0007227659
0.36125302,4.4703484e-07,1.8179417e-05,0.0004014969,5.9604645e-08,0.00063201785,0.00068736076,0.0007054508,0.020461768,0.27197605
0.0004620552,0.0,2.0861626e-07,0.99981976,1.4901161e-07,0.00081959367,0.0005994141,0.0,0.00113976,6.377697e-06
3.5762787e-07,5.9604645e-07,0.0073165596,0.00010076165,0.019880056,0.00024482608,0.02982694,0.0006825626,0.9995816,5.7429075e-05
0.9964285,0.0,0.0,1.1920929e-07,0.0,0.0006582141,0.00033462048,2.9802322e-08,0.0004839003,0.00015977025
0.8383604,8.940697e-08,6.353855e-05,8.672476e-06,2.0861626e-07,0.0010549724,0.001373589,0.08014944,0.020030826,0.036581635
0.97527707,0.0,5.066395e-07,2.0861626e-07,2.9802322e-07,0.0005158484,0.00062280893,1.4901161e-07,0.010436982,0.00060993433
5.683303e-05,0.0,2.9802322e-07,1.1026859e-06,1.4305115e-06,6.0498714e-06,0.00054466724,1.1920929e-07,0.9999104,1.1026859e-06
6.2584877e-07,0.99815774,1.0669231e-05,0.00411132,7.688999e-06,0.0009691715,0.00032499433,2.9802322e-08,0.9985918,3.33786e-06
0.99263895,8.940697e-08,9.596348e-06,8.34465e-07,1.1920929e-07,0.0004570186,0.0007545352,2.0861626e-07,3.454089e-05,0.0024801493
0.23387584,1.9967556e-06,0.779688,2.5779009e-05,1.66893e-06,0.0007298589,0.000872314,9.8347664e-05,0.016094297,0.0004734099
6.854534e-07,4.258752e-05,3.5464764e-05,0.9997813,0.00023847818,0.0046670735,0.05789122,2.2649765e-06,0.9151789,5.9604645e-08
0.961987,0.0,1.5795231e-06,1.6391277e-06,0.0,0.00030437112,0.00025308132,0.008787602,0.00011384487,0.00028300285
1.2814999e-05,0.0,0.9999115,0.0038476288,0.000117480755,0.0002605021,0.0011750162,8.255243e-06,0.05080712,8.058548e-05
0.00010532141,7.915497e-05,0.00013890862,6.16312e-05,2.2232533e-05,0.0025690794,0.9980018,3.889203e-05,0.18054372,0.0019469857
1.0341406e-05,5.1259995e-05,0.00018718839,2.413988e-06,1.2516975e-06,0.00022864342,0.00541842,7.778406e-06,0.0072163343,0.9967347
0.99403465,0.0,2.9802322e-07,2.9802322e-07,0.0,0.0011065006,0.0026988983,6.2584877e-06,0.00012421608,0.00014981627
0.029283792,1.66893e-06,0.00038161874,2.95043e-06,0.0,0.9460629,0.00436908,5.185604e-06,0.00030192733,1.40070915e-05
2.3841858e-07,0.99148375,1.1026859e-05,0.9857199,1.2814999e-06,0.022463769,0.0019648075,5.9604645e-08,0.9795117,1.2218952e-06
4.6491623e-06,0.0014225245,0.0006851554,0.0013086498,1.731515e-05,0.99981344,0.19159433,0.00022488832,0.019248694,0.00040140748
5.6922436e-06,1.1920929e-07,0.7698666,0.0030579567,4.386902e-05,4.9620867e-05,0.00030890107,0.8875304,0.00069350004,0.0005044341
0.00010418892,0.0,1.3142824e-05,2.592802e-06,1.4901161e-07,0.00040960312,0.00057175756,0.0040647984,0.9801234,0.008611441
2.7775764e-05,0.99849766,4.3809414e-05,0.00021418929,6.377697e-06,0.007027656,0.0006598532,2.682209e-07,0.029118031,0.0010127127
0.0,1.9967556e-06,0.9888137,0.9985126,0.0013150573,0.00056007504,0.0018597543,2.0861626e-07,0.99400896,0.0
4.172325e-06,0.0,3.963709e-06,2.5331974e-06,0.0,5.030632e-05,0.00060117245,0.00013178587,0.99818504,0.0028244257
4.172325e-07,0.00037130713,0.0025287867,0.9996871,0.94632554,0.9875963,0.027527213,2.9802322e-06,0.00074729323,1.1920929e-07
0.943777,0.0,3.1501055e-05,5.662441e-07,9.715557e-06,0.00031930208,0.00061041117,2.3543835e-05,0.0011365712,0.015008539
0.98606753,0.0,1.5497208e-06,4.172325e-07,2.682209e-07,0.0006750226,0.00045391917,5.90086e-06,0.00014519691,0.0004092455
3.2186508e-06,7.5012445e-05,0.17319185,0.00018140674,4.440546e-06,0.99997056,0.003034681,0.00028395653,0.0021000803,0.00047305226
0.007943004,0.0,1.2397766e-05,4.5895576e-06,8.940697e-08,2.8043985e-05,0.0005516112,0.98669815,0.00012168288,0.00067558885
0.0,1.1920929e-07,0.00023391843,2.8789043e-05,0.00015187263,1.0,0.00011909008,2.6136637e-05,0.019563973,1.4901161e-07
0.0020136237,2.9802322e-08,0.00022614002,7.4505806e-06,1.013279e-06,0.9995781,0.00038298965,3.6746264e-05,0.00861904,0.00028923154
5.9604645e-08,5.6266785e-05,0.0044602156,0.00049319863,5.3465366e-05,1.0,0.0039639175,1.4334917e-05,0.027566165,1.2814999e-05
8.392334e-05,1.1920929e-07,0.00070393085,1.1622906e-06,1.758337e-06,6.502867e-05,0.0010288954,0.000246346,0.035586745,0.9884177
5.4836273e-06,5.9604645e-08,0.9998615,0.0001962483,6.377697e-06,0.00027519464,0.0016922653,0.001310885,0.0006646514,0.0011383891
9.447336e-06,5.9604645e-08,2.7418137e-06,0.9999851,3.4570694e-06,0.00080293417,0.0012262762,1.0728836e-06,0.000119656324,1.1622906e-06
0.6119805,2.9802322e-08,7.8737736e-05,0.0004209578,3.8146973e-06,0.0070829988,0.0012833178,2.0861626e-06,0.10481423,0.074735135
0.99844414,0.0,8.940697e-08,2.9802322e-08,5.9604645e-08,0.00025087595,9.673834e-05,1.758337e-06,1.3798475e-05,0.0001424849
0.018808901,1.1920929e-07,0.00019359589,0.00021395087,3.1024218e-05,0.99857223,0.0010482073,0.00017741323,0.020491242,0.0007865429
0.0023526847,8.6426735e-07,3.5613775e-05,3.1590462e-06,5.9604645e-08,0.003373623,0.47435558,2.2113323e-05,0.0424411,0.0050600767
1.3113022e-06,1.9669533e-06,0.9785663,0.00019213557,0.004586637,0.015848666,0.0037498176,1.1354685e-05,0.039273232,0.00072196126
0.005386412,0.0,9.328127e-06,6.556511e-07,2.9802322e-08,0.99147576,0.0033279657,0.00032374263,0.0012131929,0.00031143427
0.8728227,0.0,4.4703484e-07,1.3709068e-06,5.9604645e-07,0.00022816658,0.00023028255,3.5703182e-05,0.018690914,0.029760689
0.032363534,4.4703484e-07,1.5676022e-05,1.7881393e-07,2.9802322e-08,0.000117599964,0.00048035383,8.6307526e-05,0.0024879277,0.8643861
0.00020977855,1.1622906e-06,6.8843365e-05,0.00036123395,3.0189753e-05,0.984298,0.0022310615,0.0001693666,0.52367705,0.0017748475
0.15769982,2.682209e-07,0.0036177933,4.887581e-06,0.00012516975,0.0016285181,0.016376883,0.34153652,0.0018490851,0.015007615
0.0072274506,2.771616e-06,1.886487e-05,8.5145235e-05,1.4901161e-06,0.9265321,0.009792179,2.014637e-05,0.047685713,0.015491039
0.97442025,0.0,4.7683716e-07,0.0,0.0,8.124113e-05,9.781122e-05,0.0002745688,2.1249056e-05,2.887845e-05
0.8387074,2.9802322e-08,2.9802322e-08,6.8843365e-06,0.0,0.00080779195,0.000939697,1.4215708e-05,0.37116057,0.00013619661
2.9802322e-06,5.1170588e-05,0.9266297,7.900596e-05,2.3066998e-05,0.99992514,0.003857255,5.453825e-05,0.003674239,3.4570694e-06
0.9715391,2.9802322e-08,3.5703182e-05,2.682209e-07,1.7285347e-06,0.0008428991,0.0007945597,2.9295683e-05,0.005952269,0.002346009
8.940697e-08,0.0010840595,1.6391277e-06,0.9999778,0.0006572306,0.024012715,0.6990831,0.0,0.0018319786,3.3974648e-06
0.9571557,0.0,3.33786e-06,2.9802322e-07,7.8082085e-06,0.0020104349,0.00035613775,0.00016832352,0.00040134788,0.034455746
2.4586916e-05,8.493662e-06,3.784895e-06,0.9999242,4.529953e-06,0.001172781,0.001254499,0.0,0.0029026866,5.683303e-05
0.9775952,1.1920929e-07,2.9802322e-08,3.2782555e-07,8.940697e-08,0.00010219216,0.0002116561,1.4901161e-07,0.011092544,0.0006210804
0.0001335144,3.1888485e-06,3.4570694e-06,5.9962273e-05,1.2367964e-05,0.00050106645,0.004166186,2.0623207e-05,0.979766,0.00750196
2.9802322e-07,0.0004924536,0.0010318756,0.0001758337,4.7683716e-07,0.99999833,0.005677521,2.5629997e-06,0.00742653,6.7293644e-05
1.5795231e-06,1.4901161e-07,1.2665987e-05,0.9999658,0.00019365549,0.0002720356,0.0046955347,3.2782555e-06,0.0024782717,0.00022116303
0.9859569,0.0,1.6391277e-06,3.4570694e-06,5.9604645e-08,0.0021251142,0.00204283,1.5795231e-06,0.0013825297,0.00023120642
1.4424324e-05,0.0,5.9604645e-08,2.208352e-05,1.7881393e-07,7.584691e-05,0.00032532215,1.4901161e-07,0.99996024,2.6226044e-06
0.049212813,2.9802322e-07,0.97529244,6.735325e-06,2.9802322e-07,0.0004490018,0.002121091,0.0002514422,0.00086310506,9.778142e-05
3.5494566e-05,0.99911463,6.613135e-05,0.00012499094,5.543232e-06,0.011594743,0.000117599964,1.1920929e-07,0.0043784976,7.471442e-05
0.9926044,0.0,2.0861626e-07,4.172325e-07,2.9802322e-08,0.00073838234,0.00039064884,6.556511e-06,0.0004836321,0.00023248792
0.0011965334,5.9604645e-08,1.898408e-05,5.364418e-07,1.1920929e-07,0.00015467405,0.0026521087,1.642108e-05,0.99961925,2.1159649e-05
0.7231133,0.0,3.1590462e-06,8.940697e-08,1.4871359e-05,0.00025457144,0.00038054585,2.8431416e-05,0.040644944,0.011446565
0.0,0.00012335181,0.98613894,0.30171815,0.00021976233,0.015455902,0.6003925,1.1622906e-06,0.98307633,3.1888485e-06
0.015716523,0.0,4.7683716e-07,1.3947487e-05,2.3841858e-07,0.00017341971,0.0003119111,1.54078e-05,0.9903638,4.2289495e-05
0.9810253,0.0,2.8908253e-06,3.2782555e-07,2.771616e-06,0.0021263957,0.0014835596,4.7385693e-06,0.00023519993,0.0056349635
0.7344425,0.0,3.5762787e-07,0.0,0.0,6.9737434e-06,7.864833e-05,0.16135389,0.00020578504,0.00021511316
0.045233697,1.7881393e-07,3.5762787e-07,2.0861626e-07,0.0,0.0020199716,0.40474007,2.1755695e-06,8.171797e-05,9.8228455e-05
0.88586545,5.364418e-07,7.748604e-07,7.122755e-06,0.0,0.0013198256,0.0012871325,1.3709068e-06,0.2806491,0.0014256537
0.7679296,0.0,5.543232e-06,5.543232e-06,4.7683716e-07,0.000113874674,0.00041869283,1.7881393e-07,0.26111114,0.006753683
0.0016748309,0.0,2.682209e-07,1.1920929e-07,0.0,0.0001746118,0.0018930137,1.7285347e-05,0.998689,5.5283308e-05
0.5447058,2.9802322e-07,1.5765429e-05,2.1874905e-05,2.026558e-06,0.0009725988,0.04354933,0.0059911907,0.0009126067,0.012594581
6.7949295e-06,0.0,0.00046655536,1.14142895e-05,1.6093254e-06,1.9818544e-05,0.005812466,1.4901161e-05,0.9998765,0.00012275577
4.172325e-07,0.0,7.05719e-05,0.99990547,0.9996809,0.00022441149,0.00082564354,1.4901161e-07,0.009769917,1.7881393e-07
0.9639154,0.0,9.536743e-07,0.0,0.0,0.0016804934,0.0003913045,4.4703484e-07,0.002420038,0.018188387
0.91455966,2.9802322e-07,0.0009948611,2.0861626e-07,7.748604e-07,0.00051006675,0.0005182922,1.9490719e-05,0.03693503,0.007576078
0.69926524,0.0,3.0368567e-05,1.2218952e-06,0.0,0.0009520352,0.0007041395,0.0006580949,0.09339967,0.0012435019
1.692772e-05,1.013279e-06,1.7881393e-07,2.014637e-05,1.7285347e-06,0.0037164092,0.9960382,2.1755695e-06,0.0022644103,0.0038833022
0.000377357,0.0,0.00016087294,2.4825335e-05,1.5735626e-05,0.00016367435,0.00057825446,0.91517526,0.0050447285,0.0026097596
1.66893e-06,1.5795231e-06,2.4557114e-05,0.9998902,2.1457672e-06,0.0002513826,0.0022151172,9.447336e-06,0.0004991889,0.00014099479
1.49309635e-05,2.7537346e-05,3.2186508e-06,4.735589e-05,1.6391277e-06,0.92989254,0.902954,1.5228987e-05,0.0036514997,0.015109956
3.1292439e-06,2.9802322e-07,0.005687982,0.00012671947,0.01839757,0.0023661256,0.071287215,7.1525574e-05,0.9562459,0.000983715
7.483363e-05,2.9802322e-08,0.9996989,0.00042119622,2.771616e-06,0.00030744076,0.0026912987,8.85129e-06,0.21332845,4.1276217e-05
3.0100346e-05,0.0,4.7683716e-07,1.0728836e-06,0.0,6.330013e-05,0.001195848,7.4505806e-07,0.9999161,1.7017126e-05
0.9965953,0.0,5.9604645e-07,1.7881393e-07,0.0,0.00059226155,0.00026157498,1.1086464e-05,7.548928e-05,3.1143427e-05
0.9849535,0.0,2.3543835e-06,6.7949295e-06,1.1920929e-07,0.0027216673,0.002530545,7.688999e-06,0.0002606213,0.0017401874
0.00015217066,0.0,2.9802322e-08,0.99997264,4.7683716e-07,0.00016909838,0.00010612607,5.9604645e-08,1.3232231e-05,2.9802322e-06
0.00018891692,0.0,3.6269426e-05,0.99995375,2.8908253e-06,0.00063443184,0.0008903146,1.7881393e-07,2.4020672e-05,2.503395e-06
0.001444608,0.0,8.225441e-06,1.1622906e-06,2.8312206e-06,3.501773e-05,0.0006021261,1.3649464e-05,0.9870956,0.0001860857
0.9932503,0.0,4.4703484e-07,7.301569e-06,0.0,0.00068721175,0.00037533045,4.172325e-07,0.0006454289,0.00052037835
0.94893456,8.940697e-08,2.503395e-05,4.6491623e-06,1.4901161e-07,0.002660215,0.0026335716,7.945299e-05,0.004255712,0.0016968548
0.0141350925,2.2351742e-06,4.4703484e-07,5.096197e-06,1.013279e-06,0.0020053387,0.54567814,0.0,0.00050875545,0.00026851892
0.0005557239,5.930662e-06,0.00016114116,0.00016283989,5.1885843e-05,0.008764863,0.9796892,0.00025853515,0.00063222647,0.0005645156
0.9105785,1.3709068e-06,8.761883e-06,0.0002784729,2.0861626e-07,0.010252625,0.0008610487,6.854534e-06,0.11239421,0.0027576983
0.05274117,0.0,1.1026859e-06,4.7683716e-07,0.0,0.00081306696,0.8050027,5.9604645e-08,0.00071263313,3.8266182e-05
0.0001039207,3.5762787e-07,0.00025692582,1.7881393e-06,5.6505203e-05,0.0005095005,0.0068308413,0.00028508902,0.8094332,0.1232101
0.3396855,0.0,4.261732e-06,5.0216913e-05,8.940697e-08,0.0011980534,0.000721544,0.00015377998,0.7703052,0.0067951977
2.7239323e-05,2.9802322e-08,5.364418e-07,0.00059339404,2.682209e-07,8.9496374e-05,0.0012518167,1.1920929e-07,0.9998641,3.6656857e-05
2.682209e-07,0.9993403,4.416704e-05,0.0017110407,5.6922436e-06,0.00066387653,0.0006068051,0.0,0.9959998,1.0341406e-05
0.0009492636,0.0,1.1622906e-06,5.6624413e-06,2.3841858e-07,0.00019949675,0.0005928278,5.632639e-06,0.99730957,0.0056716204
3.4451485e-05,2.9802322e-08,0.99987787,0.000117748976,1.1622906e-06,0.00042581558,0.0007388294,1.218915e-05,0.13989946,8.225441e-06
8.660555e-05,0.9988303,0.00030770898,0.10229927,2.0235777e-05,0.005524814,7.671118e-05,3.0100346e-06,0.027107239,0.00065535307
0.194747,0.0,1.6987324e-06,1.8179417e-06,8.940697e-08,0.0005892515,0.0010692179,2.0563602e-06,0.8436381,0.00366202
7.987022e-06,0.9807663,1.2755394e-05,0.006212294,3.2782555e-07,0.0017469525,0.0074174404,0.0,0.9820544,0.00058069825
1.1563301e-05,0.99199224,2.5510788e-05,0.017225564,0.00015369058,0.001396358,0.0018074214,2.9802322e-08,0.5797034,0.00015938282
6.5505505e-05,0.97124064,0.009026349,0.0010728836,0.000106453896,0.0034112334,0.0015253127,1.335144e-05,0.0016400814,0.0063357353
2.9802322e-08,4.172325e-07,0.0007738173,6.0617924e-05,0.000116080046,1.0,0.0012378395,1.8149614e-05,0.031164348,1.1920929e-06
8.46386e-06,0.76970196,0.008744776,6.991625e-05,0.0032674074,0.0071023405,0.032554954,0.00012212992,0.0003579855,0.003254056
3.784895e-06,2.3841858e-07,0.99480766,4.142523e-06,0.00030565262,0.000103503466,0.00027808547,0.00020876527,0.6592113,3.6358833e-06
0.81816554,2.9802322e-07,8.2701445e-05,1.1920929e-07,8.940697e-08,0.0005017817,0.0004953742,6.648898e-05,3.516674e-05,0.29470247
0.0,0.00060102344,0.003198713,0.88261425,0.49713928,0.9999933,0.038196772,3.46601e-05,0.0149798095,4.529953e-06
0.94388974,0.0,2.95043e-06,2.0980835e-05,0.006101191,0.00076690316,0.0005341172,2.8312206e-06,0.0073480904,0.00062692165
2.0861626e-07,0.00094246864,2.5123358e-05,0.9999695,5.5015087e-05,0.12095657,0.14302313,3.2782555e-07,0.36496562,2.1755695e-06
0.06769428,0.0,2.169609e-05,8.195639e-06,8.940697e-08,9.301305e-05,0.00014832616,0.9458004,3.6895275e-05,0.0041064024
0.87324667,0.0,5.120039e-05,7.897615e-06,2.2947788e-06,0.00042155385,0.00076690316,0.0012336075,0.010391861,0.007193297
0.7780856,5.9604645e-08,0.0041491985,5.8233738e-05,7.748604e-07,0.00219661,0.005051315,0.00041344762,0.00039172173,0.0019479692
0.9891966,0.0,2.771616e-06,1.1622906e-06,1.5795231e-06,0.0009069741,0.00080257654,6.0796738e-06,0.0011309981,0.0027490854
1.7881393e-07,0.0,0.0,0.0,0.0,0.0,5.662441e-07,0.0,0.00017288327,0.99994856
0.019164115,5.9604645e-08,1.1652708e-05,0.0002872646,3.0100346e-06,0.00018256903,0.107308745,0.035383165,0.044052303,0.005050212
0.0005851984,0.0,5.9604645e-07,0.00044623017,7.301569e-06,0.00023815036,0.0016385317,1.3411045e-06,0.99898326,6.0617924e-05
2.3841858e-07,4.887581e-06,0.0011654496,0.9995561,0.014381349,0.00017341971,0.010170281,1.013279e-06,0.0043593347,0.0024691224
0.006566614,0.0,0.00020205975,9.834766e-07,0.00035899878,0.0009121895,0.0016480386,0.00017440319,0.78131485,0.021338165
4.7683716e-07,0.0016250908,0.00022125244,0.9998871,0.00037306547,0.003416419,0.013692737,1.847744e-06,0.10497117,1.680851e-05
7.638335e-05,0.0,2.6226044e-06,2.682209e-07,7.301569e-06,5.0514936e-05,0.0018072426,1.1920929e-07,0.99978364,2.4855137e-05
0.99631774,0.0,1.7881393e-07,5.9604645e-08,0.0,0.00044292212,0.00046649575,6.2584877e-07,0.0019462109,0.00012660027
0.17888224,5.9604645e-08,0.00050738454,1.835823e-05,6.2584877e-07,0.0034802854,0.19208458,3.5107136e-05,0.00015586615,4.9889088e-05
0.98695636,2.9802322e-08,1.7881393e-06,6.854534e-07,1.1920929e-07,0.0012940764,0.0018099546,5.814433e-05,6.67572e-05,0.004943967
0.0,0.00030648708,0.0008633733,0.9985139,0.9267757,0.99769527,0.3763258,2.3245811e-06,0.011518896,8.940697e-08
0.09791443,4.172325e-07,0.0028043687,1.1026859e-06,4.3809414e-06,0.0009968579,0.00027561188,0.0057793558,0.0003668368,0.7684153
7.8082085e-06,0.0,4.172325e-07,0.9999982,2.9802322e-07,0.00015506148,0.00014415383,2.3841858e-07,1.0043383e-05,3.5762787e-07
0.0077641606,3.9428473e-05,4.172325e-07,2.0861626e-07,0.0,0.0021737218,0.9138972,2.1219254e-05,0.00011321902,0.0005874932
0.048946977,0.0,8.136034e-06,1.1920929e-07,0.0,4.0888786e-05,0.00033271313,0.9846802,4.6789646e-05,0.00087586045
0.0001488924,5.364418e-07,5.5283308e-05,0.99996185,0.0002039969,0.0039220154,0.005901903,2.0861626e-07,0.026711643,5.722046e-06
2.4169683e-05,0.9917997,6.681681e-05,0.00011473894,6.2584877e-07,0.0050120056,0.005039811,2.0861626e-07,0.6460907,0.00046125054
1.6868114e-05,0.0,3.5762787e-07,6.2584877e-07,0.0,2.7418137e-06,4.887581e-06,8.821487e-06,2.6971102e-05,0.9999857
4.091859e-05,3.2484531e-06,0.00028720498,3.2782555e-06,1.7881393e-07,6.380677e-05,0.0017669797,6.425381e-05,0.012204289,0.99749315
0.74676895,0.0,1.9967556e-06,1.013279e-06,2.3841858e-07,0.00018996,0.0003978908,1.7881393e-06,0.53151065,1.66893e-05
2.0861626e-07,2.0861626e-07,0.00010511279,1.8239021e-05,0.00018844008,1.0,0.0012083352,4.7683716e-06,0.06576952,3.2007694e-05
2.682209e-07,2.2947788e-06,0.00012290478,0.9999732,0.98699677,0.00075259805,0.0044327974,8.6426735e-07,0.00374192,3.5762787e-07
0.009059131,0.0,1.7881393e-07,6.854534e-07,0.0,2.8312206e-06,4.4047832e-05,0.99627817,4.5627356e-05,0.00014936924
0.0004490912,8.940697e-08,2.115965e-06,1.4901161e-07,0.0,0.0003386438,0.0031247735,6.2584877e-07,0.9987544,0.000121831894
0.98004675,0.0,1.5795231e-06,3.5762787e-06,0.0,0.00050097704,0.0011778474,0.00011986494,0.00013139844,0.0019576848
0.013710141,0.0,7.4505806e-07,0.0003710091,6.020069e-06,2.3901463e-05,1.54078e-05,0.04535058,0.00064483285,0.015348941
3.758073e-05,0.0,0.99997616,0.0005376935,3.33786e-06,0.00028565526,0.0010798275,3.0398369e-06,0.00080025196,1.0997057e-05
0.000107079744,0.0,1.9669533e-06,3.5762787e-07,1.1920929e-07,5.5104494e-05,0.0011906624,1.66893e-06,0.9999084,1.7255545e-05
1.7851591e-05,1.9073486e-05,6.0498714e-06,1.937151e-05,2.5331974e-06,0.04801917,0.99391735,6.854534e-07,0.034401536,0.001758486
0.0043258667,0.0,1.847744e-06,6.2584877e-07,0.0,0.0002091229,0.00066524744,1.0609627e-05,0.9734218,0.0045934618
2.9802322e-08,5.915761e-05,0.002129048,0.00033906102,0.0001256764,1.0,0.0035107136,0.0002654791,0.0055803657,1.5735626e-05
0.8721291,0.0,1.7881393e-06,8.046627e-07,1.1920929e-07,0.00019839406,0.00027754903,0.013279617,0.031822324,0.0012570322
0.958508,5.9604645e-08,5.8591366e-05,2.4735928e-06,2.0861626e-07,0.00059330463,0.0017265081,0.0002810359,0.0014743805,0.0033595562
0.0015234351,2.3245811e-06,7.349253e-05,1.835823e-05,6.41942e-05,0.00010672212,0.0024993718,3.5762787e-07,0.99629045,0.0007818043
0.00012463331,4.61936e-06,6.854534e-07,3.2782555e-07,2.9802322e-08,0.0009096563,0.99945056,2.9802322e-08,3.376603e-05,0.0001513958
0.9868893,1.1920929e-07,3.4570694e-05,1.4901161e-07,0.0,0.00055226684,0.0002759993,3.3974648e-06,0.00089260936,0.006307304
0.0001705885,1.1920929e-07,3.5762787e-06,0.99995553,4.7683716e-07,0.0014200807,0.001332581,2.682209e-07,0.0009886026,4.7683716e-06
0.00011104345,0.0,7.1525574e-07,1.9997358e-05,8.940697e-08,2.2441149e-05,4.1544437e-05,0.9993646,3.8295984e-05,0.0001770556
0.0009454489,0.0,7.599592e-06,5.364418e-07,2.3841858e-07,0.00023183227,0.0013881326,1.0728836e-06,0.99916995,9.915233e-05
0.02694726,1.513958e-05,0.00014874339,2.9802322e-08,6.2584877e-07,0.0008607507,0.0019891262,1.2814999e-06,0.90236926,0.026108623
6.824732e-06,0.0,1.1920929e-07,9.298325e-06,0.0,1.7940998e-05,0.00018066168,0.9999033,0.001239568,0.00025773048
2.4199486e-05,5.930662e-06,6.7055225e-06,7.4505806e-07,5.066395e-07,0.0018365085,0.99064136,3.1858683e-05,0.0004132092,0.0061575472
0.025401235,0.0,0.00033321977,4.798174e-06,4.172325e-07,0.000574708,0.002397865,1.7166138e-05,0.97090185,0.0019453764
1.013279e-06,0.0,0.0,7.4505806e-07,0.0,2.9802322e-08,4.261732e-05,0.0,5.662441e-07,0.9999913
1.1920929e-05,0.00013652444,0.0032092035,0.00010022521,6.2584877e-07,0.0005925298,0.015550524,3.3676624e-06,0.9754956,0.011372536
0.01207903,0.0,6.3180923e-06,9.9003315e-05,5.9604645e-08,0.0001911819,0.0049581826,0.0001847744,0.98992723,0.00023198128
2.8312206e-06,2.2262335e-05,0.00021216273,0.00017926097,0.00014197826,0.9999996,0.0020703375,4.61936e-05,0.004746318,3.787875e-05
0.9985296,0.0,1.7881393e-07,2.9802322e-08,0.0,0.0006943345,0.00041529536,2.9802322e-07,4.926324e-05,0.00032630563
0.9933002,0.0,8.940697e-08,1.0430813e-06,0.0,0.00054499507,0.0006259978,6.7949295e-06,0.0012241602,0.00011074543
0.9454606,0.0,2.6226044e-06,1.7881393e-07,0.0,0.00015941262,0.00028643012,0.00018408895,0.0011412203,0.017414898
0.97838646,0.0,0.00031208992,1.66893e-06,2.0861626e-07,0.0011594296,0.0007843971,3.0517578e-05,5.888939e-05,0.00017631054
7.6413155e-05,0.0,1.1920929e-07,1.5109777e-05,2.3841858e-07,5.0216913e-05,0.000587523,1.1920929e-07,0.9997591,1.6272068e-05
0.98724234,3.2782555e-07,6.1392784e-06,1.3709068e-06,7.748604e-07,0.0007107556,0.0007414222,1.1533499e-05,0.000246495,0.00755921
0.0001424551,4.5001507e-06,0.0004930198,0.0015652478,3.2752752e-05,0.9999954,0.0034770966,3.6656857e-06,0.005135834,5.3286552e-05
0.49806428,1.1920929e-07,5.722046e-06,7.5906515e-05,5.9604645e-08,0.0026610792,0.0012744963,5.066395e-07,0.8320411,0.00037625432
0.088166445,0.0,2.7120113e-06,2.7477741e-05,8.940697e-08,0.00048545003,0.0005452633,0.8602129,0.0001077652,0.006835073
0.001006186,0.9968891,0.0010668635,9.250641e-05,8.583069e-06,0.0022844076,0.00016850233,1.5586615e-05,0.009391993,0.001119554
1.3053417e-05,0.9992925,0.00092342496,0.010986775,0.00010731816,0.006006062,0.00049334764,0.00035697222,0.10159093,0.0012243092
0.9974848,0.0,5.9604645e-08,0.0,0.0,0.0004567504,0.00039866567,1.0788441e-05,1.5109777e-05,0.0003284812
5.799532e-05,2.169609e-05,0.0014815629,0.0011234283,0.00028273463,0.9999925,0.0023216307,3.1292439e-06,0.094070435,2.387166e-05
0.99663615,0.0,4.172325e-07,0.0,0.0,0.00040769577,0.00025945902,2.0861626e-07,8.3744526e-05,0.0017823279
6.854534e-06,1.1920929e-07,0.00016352534,0.99987733,0.7573664,0.00070914626,0.001229763,3.5762787e-07,0.3465032,3.5762787e-07
0.00081658363,0.0,1.6361475e-05,4.479289e-05,2.2113323e-05,6.6548586e-05,0.002098769,3.3676624e-06,0.9991356,0.0007196665
0.7670073,0.0,4.7683716e-07,2.682209e-07,5.9604645e-08,4.1425228e-05,0.00021192431,0.06274417,0.00037002563,0.007846773
0.021981597,0.0,5.5134296e-06,5.6892633e-05,1.3709068e-06,0.00046488643,0.0006213486,6.6161156e-05,0.9678369,0.0024658144
0.9958874,0.0,5.662441e-07,4.7683716e-07,0.0,0.0031546354,0.00046622753,6.556511e-07,1.5556812e-05,0.0006490946
0.0012809634,0.0,0.00096708536,0.00022950768,3.1024218e-05,0.00017496943,0.00086793303,6.043911e-05,0.9949082,0.0004156232
4.7653913e-05,5.9604645e-08,8.6426735e-07,0.9999574,4.7683716e-07,0.0004169643,0.002777785,0.0,0.09554413,9.480119e-05
0.976537,8.940697e-08,2.7120113e-06,3.5762787e-07,1.4901161e-06,0.00053447485,0.00044888258,1.3411045e-06,0.00035908818,0.032148182
0.0134498775,0.0,1.4603138e-06,6.28829e-06,1.2516975e-06,0.00016337633,0.00072047114,1.0430813e-06,0.9914458,0.00069224834
1.7881393e-07,2.6524067e-06,0.0001411438,9.548664e-05,4.172325e-07,1.0,0.0018779039,5.3942204e-06,0.005053729,2.1457672e-06
0.7889772,0.0,7.212162e-06,2.1129847e-05,6.2584877e-07,0.0012455881,0.0011690259,3.5762787e-06,0.40839165,0.00012263656
0.00072038174,1.4901161e-07,6.7055225e-06,4.053116e-06,5.9604645e-08,0.0003786981,0.002632171,2.0861626e-07,0.99604493,0.0049695373
0.00014689565,0.0,1.8149614e-05,0.9998269,1.1324883e-06,0.0007174611,0.00077691674,3.4570694e-06,0.00047951937,2.026558e-06
0.916608,0.0,6.2584877e-07,2.413988e-06,1.4305115e-05,0.00033560395,0.00018119812,0.0024101734,0.0060204566,0.0012649596
6.109476e-06,2.1189451e-05,0.00023692846,0.9999461,0.0002914667,0.007714182,0.08725321,1.9669533e-06,0.00020182133,6.5267086e-06
1.4901161e-06,2.9802322e-08,2.8908253e-06,0.99999714,0.002887845,0.00046777725,0.0013079345,0.0,0.06343952,2.3841858e-07
1.1026859e-06,5.9604645e-08,8.046627e-07,4.827976e-06,1.4901161e-07,0.0005969703,0.80988514,0.9130789,0.00052830577,4.6670437e-05
9.384751e-05,8.940697e-08,2.592802e-06,1.4007092e-06,2.9802322e-07,7.876754e-05,0.001475066,1.0848045e-05,0.035856962,0.96601796
1.2040138e-05,2.9802322e-07,0.0001257062,0.9999554,0.00528571,0.0019427538,0.0034209192,2.3841858e-07,0.008667052,7.7188015e-06
0.04506871,1.2218952e-06,1.5825033e-05,0.0035984218,2.3454428e-05,0.00035992265,0.00081571937,4.1127205e-06,0.9552657,0.0046780407
1.1920929e-07,0.99898386,1.0281801e-05,0.4106738,2.2649765e-06,0.008737266,0.00024184585,2.9802322e-08,0.99419093,5.453825e-06
0.00013184547,2.0861626e-07,3.5762787e-06,0.9999726,9.953976e-06,0.0010326803,0.00046667457,1.4901161e-07,0.00081655383,3.8444996e-06
0.0062973797,0.0,2.2649765e-06,4.887581e-06,0.0,2.7269125e-05,0.00034222007,6.2584877e-07,0.0768694,0.9909766
1.1920929e-07,0.0,1.6987324e-06,0.99999416,0.00045639277,9.36389e-05,0.0013290942,1.4305115e-06,3.644824e-05,4.4554472e-05
0.00040990114,3.695488e-06,1.1920929e-07,3.5762787e-07,8.940697e-08,0.008812934,0.8824647,0.0,0.7139157,0.007844955
0.00035199523,0.0,0.99946976,0.0005404055,0.000111311674,0.00038534403,0.003294021,2.2679567e-05,0.013485879,3.6656857e-05
0.9077503,0.0,1.9669533e-06,1.1920929e-07,3.5762787e-07,0.0006290376,0.0004364252,0.0008085072,0.0003659129,0.028834999
0.8911442,1.7881393e-07,6.8843365e-06,4.541874e-05,2.3841858e-07,0.0011563003,0.0013153255,4.863739e-05,0.21104121,0.0017024875
0.00027754903,2.9802322e-07,0.0020399392,0.000114023685,5.90086e-06,0.9998884,0.00044250488,0.00021740794,0.00058722496,6.54459e-05
5.9604645e-08,0.0,0.0,0.0,0.0,0.0,1.2516975e-06,0.0,7.760525e-05,0.9999868
0.9952047,0.0,2.3245811e-06,5.9604645e-08,0.0,0.00082165,0.00034937263,7.6293945e-06,0.00029695034,0.00059333444
0.00042128563,0.0,2.2649765e-06,6.2584877e-07,0.0,0.00031864643,0.00077190995,1.2516975e-06,0.99962556,1.6599894e-05
0.95378244,0.0,2.8550625e-05,8.821487e-06,3.552437e-05,0.00040253997,0.00019961596,3.3080578e-06,0.0016185939,0.018730402
0.95384896,0.0,2.9802322e-07,1.1920929e-06,0.0,0.0005556941,0.0004093945,3.963709e-06,0.041488647,0.0006584227
0.00030177832,0.00010856986,1.9073486e-06,3.3974648e-06,6.854534e-07,0.0027889311,0.99873215,1.7881393e-07,0.0033011138,0.00061273575
0.70402575,1.1920929e-07,0.4141348,7.301569e-06,3.874302e-06,0.001457274,0.0013101101,0.0056782365,0.00037753582,0.0022807717
0.9456831,0.0,5.891919e-05,2.9802322e-08,5.990267e-06,0.00021067262,0.00022831559,0.0049054623,0.0001309216,0.0066305697
0.000120192766,0.0,5.13494e-05,6.556511e-07,0.00016570091,0.00010433793,0.004236281,0.0005195737,0.00014197826,0.97565556
1.3589859e-05,0.9803025,0.00054097176,0.0014258921,5.7786703e-05,0.0082244575,0.004822731,5.9604645e-08,0.20880851,0.021662205
0.9893861,1.4901161e-07,6.8843365e-06,5.364418e-07,0.0,0.0009074211,0.0008510947,2.1249056e-05,7.376075e-05,0.009159237
2.2053719e-05,5.066395e-07,7.4207783e-06,0.9998648,0.012914896,0.00094142556,0.0053634346,8.940697e-08,0.26354557,1.3411045e-06
0.11714825,0.0,0.7581085,8.7827444e-05,7.987022e-06,0.0012545884,0.00067073107,0.00047960877,0.035747916,0.00039467216
0.027590573,0.0,1.9967556e-06,5.364418e-07,5.9604645e-08,0.00068449974,0.00074100494,9.4771385e-06,0.9377265,0.0054974854
2.9802322e-08,3.6597252e-05,0.89225924,0.97472596,1.3709068e-05,0.00038400292,0.008321106,2.9802322e-08,0.9968415,1.4901161e-07
0.81335735,0.0,0.00016775727,0.00019684434,2.9802322e-08,0.0008033514,0.00086936355,0.13969278,0.0011358261,0.0017376244
0.00085663795,3.5762787e-07,0.73061734,6.890297e-05,2.1845102e-05,0.00022113323,0.004747808,4.6372414e-05,0.98592544,0.0004261434
0.969952,0.0,1.937151e-06,2.5331974e-06,1.847744e-06,0.003920853,0.0008627176,8.940697e-07,0.0010424256,0.00524801
0.0,9.0777874e-05,0.00032648444,0.99984694,6.4998865e-05,0.00024971366,0.021421224,9.119511e-06,0.99231404,1.4901161e-07
2.6792288e-05,0.0,4.7683716e-07,0.99999046,5.9604645e-07,0.00044202805,0.0006237626,6.854534e-07,4.938245e-05,2.9802322e-07
0.00056400895,3.257394e-05,3.3318996e-05,1.3500452e-05,1.4305115e-06,0.00036028028,0.026464194,2.0861626e-07,0.9976344,0.00036290288
1.7881393e-07,0.9587021,0.0020343363,0.99945533,0.07371414,0.36645505,0.01205948,2.3841858e-07,0.12672186,8.940697e-08
0.947292,0.0,3.194809e-05,4.4703484e-06,2.2292137e-05,0.004888475,0.00064891577,0.004612118,0.00032779574,0.021130234
4.6789646e-06,0.9931222,0.001429081,0.0034184456,4.6491623e-06,0.013979107,0.0035182536,2.682209e-07,0.82739574,0.00057020783
0.99845475,0.0,2.9802322e-08,3.5762787e-07,0.0,0.0006581545,0.00021526217,2.9802322e-08,0.00011089444,0.00013631582
0.0002207756,0.0,6.788969e-05,6.4969063e-06,3.1590462e-06,5.7041645e-05,0.0005315244,1.0937452e-05,0.99945354,8.624792e-05
0.00017300248,1.0728836e-06,0.00023120642,2.2947788e-06,5.9604645e-08,8.568168e-05,0.00088757277,8.493662e-06,0.9887415,0.018576533
2.7418137e-06,0.9911028,0.0004235208,0.83751965,0.0004363656,0.01166445,0.0060140193,0.0,0.63740766,0.00011894107
0.6825834,0.0,6.556511e-07,3.2186508e-06,0.0,0.0008457899,0.00056415796,0.0002465546,0.27365035,0.0013473332
0.0,7.122755e-06,0.00013524294,0.0052369833,7.05719e-05,1.0,0.0023614168,1.579523e-05,0.011792839,3.874302e-07
0.94690794,0.0,2.115965e-06,1.4901161e-07,1.013279e-06,0.00026634336,0.00026530027,0.0012616813,8.6814165e-05,0.0137916505
2.8312206e-06,0.0,9.23872e-07,7.7188015e-06,0.0,3.9339066e-06,0.00072687864,0.98530746,0.9938206,1.7613173e-05
0.000100046396,0.9924413,0.0021059215,0.0059815645,1.1473894e-05,0.00382033,0.0028573275,2.5629997e-06,0.9102424,0.0020866096
0.9375622,8.940697e-08,1.4841557e-05,4.172325e-07,0.0,0.001038909,0.000659585,4.827976e-06,3.2812357e-05,0.033947468
5.9515238e-05,0.00018242002,0.0011711121,0.0007056892,1.6510487e-05,0.9985547,0.10609037,1.9550323e-05,0.34045824,0.0028488636
5.1885843e-05,0.0,4.7385693e-06,1.3887882e-05,1.4901161e-07,6.207824e-05,0.001128614,3.993511e-06,0.9999346,2.7060509e-05
4.002452e-05,0.889722,0.004756987,0.46658495,1.3679266e-05,0.013926238,0.0033569336,2.0742416e-05,0.6623376,0.006670952
7.4207783e-06,0.00014013052,0.000990808,0.06637755,0.022209316,0.9995351,0.018652499,0.00029960275,0.00818792,0.0005083978
1.3381243e-05,2.3841858e-07,9.834766e-06,1.0728836e-06,2.1457672e-06,0.00015756488,0.00046560168,0.11015651,0.015757978,0.9036008
0.008089036,2.2351742e-06,2.989173e-05,0.95045334,8.225441e-06,0.0010348558,0.0014066696,4.23193e-06,0.6169994,0.0003131032
4.2945147e-05,0.0,1.4007092e-06,2.0861626e-07,0.0,0.00012516975,0.0027240813,2.0563602e-06,0.9999008,2.3186207e-05
2.8342009e-05,0.0,1.0102987e-05,7.599592e-06,2.9802322e-07,9.268522e-06,0.0006643832,2.2053719e-05,0.9998638,4.6491623e-05
4.351139e-06,5.9604645e-08,1.013279e-06,0.99998945,1.0222197e-05,0.002507329,0.0032572448,2.9802322e-07,0.019363284,1.1026859e-06
1.9699335e-05,8.34465e-07,0.000880301,7.897615e-06,1.1712313e-05,0.9998611,0.003483802,2.360344e-05,0.16325018,0.0009088218
0.00015625358,2.026558e-06,0.9968382,2.6583672e-05,1.513958e-05,0.0010272264,0.0013330579,4.917383e-06,0.34436762,3.913045e-05
0.6523266,8.940697e-08,4.9740076e-05,1.4603138e-06,1.3142824e-05,0.00068840384,0.00091046095,0.0020580292,0.012524307,0.099469155
5.3942204e-05,1.630187e-05,5.662441e-07,6.854534e-07,1.54078e-05,0.008967996,0.9716145,7.5399876e-06,0.0002552867,0.00070530176
0.99743927,0.0,1.1920929e-07,2.0861626e-07,0.0,0.0006106198,0.00040379167,3.2484531e-06,0.00017246604,6.559491e-05
1.7255545e-05,0.0,4.7683716e-07,0.99998677,0.0,0.0015709996,0.0018568933,0.0,0.0018306673,0.0
0.000900805,8.940697e-08,1.6093254e-05,2.3841858e-07,1.4901161e-07,0.00025874376,0.88135123,1.3113022e-06,0.0008428395,0.21773538
2.3335218e-05,0.0,3.5762787e-07,4.3153763e-05,0.0,0.00015980005,0.00075519085,7.748604e-07,0.9999565,1.5497208e-05
0.023105353,1.0728836e-06,1.8179417e-06,3.1888485e-06,8.940697e-08,0.0007583499,0.0013066232,1.7881393e-07,0.9266313,0.06970468
2.9802322e-07,0.75760597,0.012230635,0.9625557,0.0001860261,0.0028675795,0.024919838,1.7881393e-07,0.9921231,6.556511e-06
0.9946345,0.0,6.2584877e-07,8.940697e-08,2.682209e-07,0.00035086274,0.00029316545,7.95722e-06,8.2075596e-05,0.0006621778
0.9922894,0.0,3.4570694e-06,1.6093254e-06,0.0,0.0013385415,0.0012074411,2.3543835e-06,0.0021374524,0.000111848116
0.8960168,0.0,2.1457672e-06,9.387732e-06,2.3841858e-07,0.002159506,0.0011480749,8.46386e-06,0.006288022,0.010165215
0.0026985407,0.0,2.7120113e-06,2.682209e-07,1.7166138e-05,5.015731e-05,0.0031552613,6.4969063e-06,0.9964522,0.0003771186
0.23742217,0.0,2.0861626e-06,3.1292439e-06,1.2516975e-06,0.00017881393,0.0007227063,5.990267e-06,0.849247,0.00018164515
0.0001309514,0.0,8.34465e-07,5.8948994e-05,1.1920929e-07,6.237626e-05,0.000513345,0.99949884,0.0016390979,0.000118643045
0.99477434,0.0,5.662441e-07,3.874302e-07,0.0,0.0013973415,0.00056248903,1.66893e-06,0.00033774972,0.0008517206
1.4901161e-07,7.56979e-05,0.9282954,0.18558139,0.0010055304,0.99973905,0.015610427,7.459521e-05,0.3453765,8.7320805e-06
0.110984325,0.0,4.172325e-07,1.5377998e-05,3.3974648e-06,0.00022551417,0.00024920702,6.6548586e-05,0.85482645,0.0007086992
0.37513003,1.7881393e-07,0.0420112,6.148219e-05,0.00011968613,0.00073096156,0.0025441349,0.00018313527,0.043319643,0.0049363077
0.002349764,0.0,5.531311e-05,1.7434359e-05,0.0020590723,0.00012013316,0.0007683635,2.6226044e-06,0.9842819,0.0045902133
7.504225e-05,0.0,2.861023e-06,0.0002451241,3.5762787e-07,0.00021225214,0.0011223257,3.516674e-06,0.9997487,0.00023555756
0.0021532178,1.013279e-06,6.4343214e-05,5.3822994e-05,7.638335e-05,0.009831876,0.86536944,3.7550926e-06,0.00013616681,0.0036951602
0.009700179,0.0,7.748604e-07,1.7881393e-07,2.9802322e-08,0.00048595667,0.0008595586,4.7683716e-07,0.99364567,0.0015582442
0.9846597,0.0,1.7285347e-06,1.1712313e-05,8.940697e-08,0.00048729777,0.00012201071,2.6226044e-06,7.605553e-05,0.018867075
0.988981,0.0,6.2584877e-07,2.3245811e-06,0.0,0.0010350645,0.0006855428,1.3709068e-05,6.324053e-05,0.0028879046
0.0033545494,0.0,2.3841858e-07,2.9206276e-06,2.3245811e-06,0.000143677,0.000685215,0.99724436,0.0015339851,0.001013577
6.5267086e-06,3.1590462e-06,1.7344952e-05,0.00046554208,1.0281801e-05,0.999998,0.0013313293,1.5199184e-06,9.402633e-05,4.6908855e-05
0.003400892,5.9604645e-08,4.005432e-05,8.672476e-06,5.066395e-07,0.0009280443,0.0036480129,0.00012251735,0.98778325,0.0015763938
0.0005527139,0.0,0.000120043755,2.7090311e-05,7.480383e-05,5.5462122e-05,0.0005379319,4.6491623e-06,0.99071753,0.0071254075
1.4007092e-06,1.8060207e-05,0.9904531,0.00012129545,6.4611435e-05,0.0018176436,0.026133418,5.662441e-07,0.989855,6.28829e-06
2.0861626e-07,9.459257e-05,1.001358e-05,0.9998596,6.8843365e-06,0.0044203997,0.13868928,7.4505806e-07,0.2811904,6.118417e-05
5.543232e-06,1.9073486e-06,0.00042775273,8.672476e-06,3.9100647e-05,4.7385693e-06,0.00016582012,2.9802322e-08,2.1487474e-05,0.9958734
0.040498912,5.9604645e-08,0.011909813,8.9854e-05,0.0011075139,0.000261724,0.0018573403,1.2129545e-05,0.45077336,0.0031909645
0.026979119,2.0861626e-07,0.00029581785,0.0006092489,1.2934208e-05,0.001972437,0.0064172447,9.87649e-05,0.057877064,0.10332513
0.98017293,0.0,1.3768673e-05,2.3841858e-07,0.0,0.00034940243,0.00083836913,0.0007863939,7.0005655e-05,0.00396502
0.9403088,0.0,1.4901161e-06,1.013279e-06,6.2584877e-07,0.00022429228,0.00055366755,0.00043562055,0.0017234087,0.008955419
0.00062918663,0.8737731,0.012731552,0.00028440356,2.4586916e-05,0.030336231,0.0885798,9.196997e-05,0.18269232,0.02727443
0.00013485551,8.940697e-08,9.575486e-05,1.9699335e-05,1.847744e-06,0.00012463331,0.0020878017,2.7656555e-05,0.14196947,0.92824054
1.4901161e-07,0.0,0.9996546,0.0018669963,0.0059179366,6.2555075e-05,0.0007259548,8.34465e-07,0.98420674,1.937151e-06
0.969592,5.9604645e-08,0.0067674816,5.9604645e-08,1.1920929e-07,9.2595816e-05,0.00018581748,0.00013005733,0.0012948811,0.00022524595
5.00679e-06,0.0038770735,0.0047521293,0.9958482,0.00015839934,0.0005656183,0.0027163625,1.4901161e-07,0.8880569,9.6678734e-05
4.1216612e-05,0.99500984,0.0010240674,0.0006618798,6.2584877e-07,0.009021074,0.0045187175,6.556511e-07,0.19955489,0.0015019178
0.00030127168,0.0,5.364418e-07,0.00017040968,8.6426735e-07,0.0015826523,0.00756377,4.6789646e-06,0.9990099,0.00027099252
7.4505806e-07,3.8146973e-06,0.9991973,0.0027616024,3.4868717e-06,0.15411913,0.0008864105,1.0728836e-06,0.29457036,1.013279e-06
0.6036001,0.0,1.1920929e-07,3.874302e-07,0.0,0.0007904172,0.00016704202,0.0027096272,0.16388318,0.0005325973
0.17361882,0.0,0.00015804172,1.8835068e-05,6.1690807e-06,8.106232e-05,0.00040963292,0.2896068,0.0070088804,0.010022372
0.93204534,0.0,2.3841858e-07,1.4901161e-07,0.0,1.1175871e-05,0.00014746189,0.0033454597,7.0929527e-06,0.00011026859
0.0,1.4901161e-07,6.7055225e-05,9.536743e-06,3.3974648e-06,0.9999999,0.0010904968,5.453825e-06,0.961786,2.1606684e-05
0.41682217,0.0,1.4305115e-06,5.143881e-05,2.6226044e-06,0.00040274858,0.0005271733,6.4969063e-06,0.7015482,0.00036856532
0.0028868318,0.0,7.033348e-06,2.2053719e-06,1.7881393e-07,0.00014224648,0.0003052354,0.00024193525,0.93551075,0.0641993
0.14629984,0.0,0.00018414855,2.8312206e-06,4.082918e-06,0.0015315413,0.0022428632,6.4730644e-05,0.8799844,0.0051021576
0.0,7.748604e-07,0.0001181066,9.745359e-06,1.8686056e-05,1.0,0.001303792,2.0563602e-06,0.7126282,6.854534e-06
4.172325e-07,0.002611041,0.0067352653,0.02218461,0.00023669004,0.86938703,0.228327,3.1977892e-05,0.0009933114,0.0014505684
0.25326806,1.6987324e-06,0.00022903085,9.834766e-06,9.834766e-07,0.00019618869,0.00036931038,0.0027849376,0.000336051,0.78505766
1.8775463e-05,0.0,7.4505806e-06,2.732873e-05,2.682209e-06,0.0001243949,0.0001823008,0.9995273,0.00059986115,0.0030972064
1.04010105e-05,0.0,0.00017637014,0.0011984706,0.99822974,0.00010582805,0.006670654,0.0001348257,0.21851161,0.0010426044
2.9802322e-06,0.006303191,0.0067875385,4.5865774e-05,0.000521034,0.9567183,0.3354739,3.1024218e-05,0.050305158,0.027305454
0.9903102,0.0,3.874302e-07,1.7285347e-06,4.172325e-07,0.0006400347,0.00054225326,2.682209e-07,0.0022920966,0.0009907186
1.680851e-05,8.940697e-08,9.23872e-07,0.9999662,7.033348e-06,0.0013629496,0.0005450845,8.940697e-08,0.015377551,8.34465e-07
0.00038474798,0.0,0.0010931194,2.9951334e-05,0.0003643334,0.0002631843,0.004096508,1.1056662e-05,0.98529434,0.0023223758
0.013964862,9.834766e-07,0.97827756,5.993247e-05,0.0024677515,0.0016176105,0.0022675097,0.0023413599,0.23831457,0.0003989935
0.00017076731,2.2649765e-06,7.748604e-07,4.172325e-07,5.9604645e-08,0.00095665455,0.99275714,5.90086e-06,0.007507831,0.011388838
0.55286837,2.1457672e-06,1.9133091e-05,1.4841557e-05,1.4305115e-06,0.0032259524,0.004643172,1.3411045e-06,0.3040846,0.008303255
2.6524067e-06,0.00052908063,0.0054466724,0.0032602549,0.0005791187,0.92074096,0.47680464,0.0015078783,0.032838732,0.013639748
5.492568e-05,2.2053719e-06,1.7285347e-06,1.052022e-05,1.2099743e-05,0.9958718,0.5868558,4.23193e-06,0.0062607527,0.0001667738
0.9934283,0.0,3.5762787e-07,6.645918e-06,1.4901161e-07,0.0025508702,0.00029876828,5.543232e-06,0.00021472573,0.0029125512
0.0016598403,1.0728836e-06,0.004812211,3.784895e-06,1.4901161e-07,5.1170588e-05,0.00049492717,1.9192696e-05,0.0012280941,0.9879302
6.914139e-05,4.4554472e-05,0.00049597025,0.0010005236,0.0007586479,0.9997462,0.027910024,2.5719404e-05,0.23115644,0.002200842
0.98080957,0.0,5.364418e-07,2.9802322e-08,1.4901161e-07,0.00025564432,0.00035327673,0.0008252561,0.0003052652,0.0002168119
3.874302e-07,1.1920929e-07,0.99881625,0.9989979,3.388524e-05,0.00034689903,0.0016689003,0.0,0.08359966,5.9604645e-08
0.49358046,0.0,6.7055225e-06,8.225441e-06,0.0,0.00217247,0.00056788325,1.874566e-05,0.77012783,0.0009584427
0.4927158,0.0,2.5629997e-06,7.4505806e-06,8.940697e-08,0.00024020672,0.00053218007,0.7726275,0.00013640523,0.00080758333
0.00078246,0.0,2.5331974e-06,4.6283007e-05,7.4505806e-07,1.40070915e-05,8.717179e-05,0.86505955,0.0024470687,0.096818954
0.35904127,0.0,2.0176172e-05,2.2530556e-05,2.2351742e-06,0.0020804405,0.0041047633,6.917119e-05,0.49091613,0.007435769
0.9792197,2.3514032e-05,2.7090311e-05,6.2584877e-07,0.0,0.0009917617,0.0014559627,6.4969063e-06,0.00028941035,0.01593706
0.048138022,1.1920929e-07,0.00030454993,0.00010880828,2.2023916e-05,0.005546838,0.0013254583,2.95043e-06,0.013324589,0.8547889
0.00049194694,5.9604645e-08,5.531311e-05,0.00091826916,0.9905637,0.00022599101,0.0021016598,1.6659498e-05,0.059121907,0.016991943
0.9944873,0.0,1.9967556e-06,8.940697e-08,5.364418e-07,0.0006169081,0.0004082024,1.6599894e-05,1.3291836e-05,0.001052916
5.0365925e-05,0.008379668,0.0033361614,0.000995785,6.425381e-05,0.0015544593,0.3719526,4.6491623e-06,0.81720525,0.0072853863
0.9574445,2.9802322e-08,1.1026859e-06,1.2218952e-06,1.4901161e-07,0.0003142953,0.00052821636,3.5762787e-07,0.17909598,8.4757805e-05
0.00039577484,0.0,2.682209e-07,2.0861626e-07,1.7881393e-07,7.5012445e-05,0.015427321,0.0,0.96386945,0.048888564
1.7881393e-07,0.9905729,0.00042787194,0.99987113,0.0016543567,0.010839373,0.022068113,5.9604645e-08,0.9137162,8.940697e-07
0.9931241,0.0,7.1525574e-07,0.0,0.0,0.0010184348,0.00018766522,0.00010833144,0.00011202693,0.000844568
0.40560853,2.9802322e-08,0.00020125508,5.9604645e-08,1.4901161e-07,0.00012734532,0.0002785623,0.0010884106,1.6778708e-05,0.6482253
0.950536,0.0,2.3841858e-07,5.066395e-07,0.0,0.0002041161,0.00022235513,0.0026684105,0.002187103,8.574128e-05
0.91168845,0.0,3.2782555e-06,3.3974648e-06,1.4603138e-06,0.0016894042,0.0010195673,4.8220158e-05,0.0067258477,0.050312966
0.16825506,8.940697e-08,5.9604645e-08,4.1127205e-06,2.0861626e-07,0.00093343854,0.007645428,1.7881393e-07,0.1690185,0.11533582
0.9778785,8.940697e-08,0.00019311905,1.1444092e-05,2.9802322e-08,0.0055479407,0.0063559413,0.0001886487,0.0004338026,0.003821224
0.9979116,0.0,1.4901161e-07,1.4901161e-07,0.0,0.001224786,0.00018543005,6.556511e-07,0.00019198656,0.00047934055
1.013279e-06,0.0,0.0,7.4505806e-07,0.0,2.9802322e-08,4.261732e-05,0.0,5.662441e-07,0.9999913
1.7881393e-07,0.0,0.0,0.0,0.0,0.0,5.662441e-07,0.0,0.00017288327,0.99994856
7.4505806e-07,0.99148166,5.7846308e-05,0.94374883,4.6938658e-05,0.06628963,0.01270929,8.940697e-08,0.011325985,2.6375055e-05
2.193451e-05,0.9983475,0.003001213,0.00015339255,2.783537e-05,0.0035068095,0.00058215857,1.847744e-06,0.03675556,0.00028079748
7.987022e-06,1.4901161e-07,0.0031332672,0.00020164251,0.99461156,5.26309e-05,0.0007792711,0.00013116002,0.7836906,9.217858e-05
0.98543835,0.0,1.1920929e-07,1.7881393e-07,1.1920929e-07,0.00048586726,0.00038054585,0.0001167357,0.00015062094,0.0003810823
9.462237e-05,9.23872e-07,2.2679567e-05,0.00021585822,1.4603138e-06,0.0016056895,0.076689005,2.682209e-06,0.99689066,0.00034680963
0.9885025,0.0,2.3275614e-05,7.7843666e-05,8.940697e-08,0.0017028749,0.0026610494,5.453825e-06,0.00014260411,0.0004478693
3.015995e-05,2.0861626e-07,0.0009211004,0.9999394,0.005504489,0.0014864206,0.00092309713,1.6987324e-06,7.992983e-05,1.2904406e-05
1.2218952e-06,0.0,0.9950801,0.0020335019,0.3625039,0.00013720989,0.00068610907,3.0100346e-06,0.9868851,4.440546e-06
3.4809113e-05,6.854534e-07,0.0009846687,1.50203705e-05,2.2649765e-06,0.00036382675,0.0015806854,2.8908253e-06,0.015201211,0.9932984
1.7881393e-07,0.0,0.0,0.0,0.0,0.0,5.662441e-07,0.0,0.00017288327,0.99994856
0.0001078248,0.0,2.6524067e-06,0.9999567,1.4901161e-07,0.000348866,0.0023729503,9.23872e-07,0.00013929605,1.3411045e-06
0.92261213,0.0,6.854534e-07,8.34465e-07,1.013279e-06,0.0047076344,0.002845347,0.0016286075,0.00012919307,0.0027264655
0.04137081,0.0,1.7106533e-05,1.6987324e-06,2.3841858e-07,0.0006453395,0.00081557035,2.026558e-05,0.9817507,0.00010383129
0.99555635,0.0,1.4305115e-06,2.9802322e-08,1.7881393e-07,0.00045612454,0.0005710423,7.987022e-06,3.3706427e-05,0.00045999885
0.9602301,0.0,7.677078e-05,2.0563602e-06,6.854534e-07,0.002990514,0.0007107258,1.2010336e-05,0.00013253093,0.009343833
0.0031763911,2.682209e-06,2.592802e-06,2.9206276e-06,2.5331974e-06,0.0049084723,0.99277633,1.552701e-05,0.020044237,0.00025942922
0.0090435445,6.854534e-07,4.592538e-05,0.21665856,0.01824668,0.0012774467,0.0041000843,9.715557e-06,0.6065659,0.0010437071
0.0048830807,0.0,1.0728836e-06,9.089708e-06,2.682209e-06,0.00019660592,0.002248317,4.172325e-07,0.99828935,1.9282103e-05
0.9668603,0.0,6.2584877e-07,1.937151e-06,0.0,0.0007163882,0.00028336048,0.00526765,0.0004172325,0.0024687648
5.9604645e-08,0.00015360117,0.70159197,0.99967337,0.002764374,0.015032172,0.004512608,1.4901161e-07,0.49673375,5.9604645e-08
2.9802322e-08,9.524822e-05,9.351969e-05,0.9999001,1.4543533e-05,0.00071179867,0.22404349,1.1920929e-07,0.9936799,3.874302e-07
1.1026859e-06,8.6426735e-07,0.9963754,0.9978628,7.122755e-06,0.0010192096,0.0038151145,2.0861626e-07,0.0046845376,5.00679e-06
0.7831365,2.9802322e-08,0.0002759397,9.23872e-07,1.1026859e-06,0.00020134449,0.00047516823,0.005948484,0.065355,0.0022065341
0.0054967403,0.0,6.854534e-07,2.026558e-05,0.0,0.005086869,0.0026128888,3.8713217e-05,0.989887,0.0011428297
0.0045983195,0.00025993586,3.4183264e-05,0.00010308623,2.592802e-06,0.0018303096,0.033002406,5.066395e-07,0.9895,0.0036224425
0.009107858,0.0,1.0758638e-05,1.40964985e-05,2.9802322e-07,0.00031673908,0.0019522309,5.990267e-06,0.99278617,0.00032430887
0.9934696,0.0,5.662441e-07,3.2782555e-07,2.0861626e-07,0.0006079972,0.00060263276,5.3048134e-06,0.00015932322,0.001336515
2.3841858e-07,0.00049111247,1.5616417e-05,0.9999287,4.2915344e-06,0.0011186302,0.03204575,2.9802322e-08,0.9706713,5.543232e-06
0.0,7.209182e-05,0.9741359,0.0001346767,0.000116318464,0.00046029687,0.6977165,3.33786e-06,0.9977229,1.1622906e-06
0.25300038,1.4901161e-07,1.4007092e-06,8.136034e-06,0.0,0.00017988682,0.00054749846,8.6426735e-07,0.89246213,9.75728e-05
0.99588215,0.0,7.1525574e-07,8.940697e-08,2.9802322e-08,0.00076553226,0.000513196,8.940697e-07,5.0991774e-05,0.0006301105
3.33786e-06,6.556511e-07,2.783537e-05,0.9999948,0.0031244755,0.00050878525,0.0052479506,8.940697e-08,0.07669419,7.8082085e-06
1.6003847e-05,3.3676624e-06,0.04208836,0.9998319,0.006626457,0.00074216723,0.0131928325,2.3841858e-07,0.0023793578,8.761883e-06
3.3289194e-05,0.9951675,0.00056380033,5.6803226e-05,8.940697e-08,0.018902928,0.0023117065,7.1525574e-07,0.0037385821,0.0006439984
0.001588136,0.0,1.6391277e-06,5.9604645e-07,3.7252903e-06,2.4795532e-05,0.00085672736,3.33786e-06,0.99898255,1.0758638e-05
5.2154064e-06,0.018844873,1.0788441e-05,0.02867505,5.6535006e-05,0.03628245,0.8310837,8.34465e-07,0.24262083,0.010493815
0.0038530827,0.9689262,4.735589e-05,5.5730343e-06,2.3841858e-07,0.0011582375,0.0010118484,0.0,0.004359305,0.00078979135
0.9926126,0.0,3.874302e-07,4.172325e-07,0.0,0.001380384,0.00066399574,2.2053719e-06,0.0013451278,0.00019049644
1.7881393e-07,0.0,0.0,0.0,0.0,0.0,5.662441e-07,0.0,0.00017288327,0.99994856
0.00080412626,2.9802322e-08,2.9802322e-07,1.6987324e-06,0.0,1.3291836e-05,0.00030985475,4.7683716e-07,0.00945282,0.9970515
0.0003376007,1.7881393e-07,0.0003080666,1.1354685e-05,6.556511e-07,0.0011271238,0.0038312674,0.0005723238,0.99845475,0.00074902177
3.1590462e-06,0.0,6.979704e-05,5.453825e-06,0.003926635,9.6321106e-05,0.0008817613,5.2452087e-06,0.0018288493,0.98094106
0.99866426,0.0,1.1920929e-07,0.0,0.0,0.0010697544,0.00040894747,1.3709068e-05,1.3887882e-05,3.7640333e-05
0.9974847,0.0,5.364418e-07,0.0,0.0,0.0010224283,0.0005428791,3.8444996e-06,1.0699034e-05,0.00023204088
0.000728637,2.9802322e-08,2.592802e-06,2.026558e-06,2.9802322e-08,0.00039055943,0.0010052621,2.5629997e-06,0.998101,0.0016111135
0.00036495924,0.26072937,0.047433943,0.00011008978,7.599592e-06,0.005137056,0.004157245,3.33786e-06,0.007807851,0.007425785
0.00012773275,0.0,1.552701e-05,1.0728836e-06,0.0,0.0011329949,0.0041484535,0.00011533499,0.9952533,0.0054178834
3.3676624e-06,0.1051116,0.010526389,0.0408774,0.012411803,0.999856,0.10174194,0.00077596307,0.7819586,3.4570694e-05
5.1230192e-05,7.4505806e-07,0.0006020665,6.854534e-07,1.1920929e-07,0.66418374,0.018663555,1.1026859e-06,0.0426566,0.04129857
0.004224628,0.0,1.7881393e-07,1.9967556e-06,8.940697e-08,0.00023394823,0.00047117472,2.9802322e-07,0.99788344,9.8347664e-05
0.8187909,3.8146973e-06,0.0023626387,6.2584877e-07,5.9604645e-08,0.00096809864,0.00053563714,3.0636787e-05,0.00017261505,0.035865933
0.023940682,1.7881393e-07,0.9914232,6.0796738e-06,8.940697e-08,0.00039198995,0.0007690191,9.420514e-05,0.00017163157,0.00016725063
0.9838549,0.0,8.46386e-06,2.9325485e-05,0.0,0.004453212,0.0003709793,6.377697e-06,0.0029395819,0.00025078654
0.22240692,2.682209e-07,6.854534e-07,0.0007559657,8.940697e-08,0.0012781322,0.0016180575,0.00039559603,0.42486465,0.027991295
3.33786e-06,0.99569106,0.0008639395,0.0039244294,0.005599618,0.007605195,0.00051915646,7.748604e-07,0.76052487,0.00013110042
0.00013923645,0.0,5.364418e-07,0.99998343,0.0,0.0005477965,0.0004440546,4.7683716e-07,0.00013002753,1.1622906e-06
8.940697e-07,0.011270583,0.016645402,0.6577292,0.008172393,0.0003052354,0.0011330843,2.3841858e-07,0.9981669,3.4570694e-06
0.9961566,0.0,1.847744e-06,5.9604645e-08,1.4901161e-07,0.0006772578,0.00016158819,1.1622906e-06,2.3186207e-05,0.0007163286
0.00023558736,0.0,0.0003914833,5.00679e-06,6.2584877e-07,0.999971,0.0016432405,7.987022e-06,0.009239584,0.00029596686
0.9934986,0.0,5.662441e-07,1.3411045e-05,0.0,0.0017011464,0.0012865067,1.3738871e-05,5.042553e-05,0.0010879636
1.1920929e-07,1.5795231e-06,0.00010445714,5.555153e-05,7.1525574e-07,0.99994195,0.006782472,2.1338463e-05,0.9902325,1.2278557e-05
1.1026859e-06,2.0563602e-06,3.874302e-07,0.9999996,4.887581e-06,0.004162073,0.024398476,0.0,0.00070917606,1.4901161e-07
9.23872e-07,0.9885938,0.00059479475,0.9975071,0.00031378865,0.009095162,0.0014325976,2.9802322e-08,0.85944855,7.659197e-06
3.0994415e-06,5.364418e-07,0.00010353327,2.6643276e-05,1.5109777e-05,1.0,0.0014309585,9.030104e-06,0.013549447,4.351139e-06
0.0003617108,0.0,5.662441e-07,1.4901161e-07,1.7881393e-07,1.9282103e-05,8.928776e-05,1.2516975e-06,0.9995837,3.1292439e-06
0.0050065517,0.0,5.9604645e-08,2.3841858e-07,1.4901161e-07,2.9474497e-05,0.00026363134,1.9520521e-05,0.98655045,0.0007918775
0.06270599,0.0,8.687377e-05,5.751848e-06,0.008636743,0.00038203597,0.00071933866,0.00023946166,0.7024664,0.0017787814
0.0010508597,6.3478947e-06,0.019380063,0.0002695024,1.5705824e-05,0.00011205673,0.0024288595,2.1249056e-05,0.9976765,7.0631504e-05
0.7201067,2.9802322e-08,1.1652708e-05,6.556511e-07,1.4901161e-07,0.030431181,0.0017518401,0.00013950467,0.0007251203,0.0013060272
0.88134134,0.0,9.030104e-06,1.013279e-06,0.0,0.13946846,0.001910001,1.0460615e-05,0.00019094348,0.00025728345
0.0122072995,3.6150217e-05,4.9978495e-05,5.1230192e-05,2.2947788e-06,0.000587821,0.043692052,0.0999535,0.021450698,0.15067628
0.99582,0.0,3.2782555e-07,2.3841858e-07,1.1920929e-07,0.0001412034,0.00016134977,1.5795231e-06,5.352497e-05,0.0018689036
9.518862e-05,0.0,0.0006458461,3.1888485e-06,1.874566e-05,0.00021079183,0.0019893348,2.0623207e-05,0.9990535,0.00078710914
3.695488e-06,0.9994346,7.113814e-05,0.011103034,0.00023397803,0.0050651133,0.00027433038,8.940697e-08,0.8978337,6.28531e-05
0.0,8.940697e-08,0.9987201,0.9995228,0.94659823,0.0018907487,0.026506752,5.662441e-07,0.0013991594,2.682209e-07
7.1823597e-06,0.99923056,0.000826329,0.00013875961,2.2649765e-06,0.017957747,0.0005682707,3.5762787e-07,0.005651623,0.00066158175
0.99567854,0.0,3.5762787e-07,4.082918e-06,0.0,0.005275011,0.0013240278,4.708767e-06,0.00062426925,0.00035429
7.867813e-05,0.002005756,2.0802021e-05,0.0003683567,8.940697e-08,0.0016253889,0.0038482547,0.0,0.98480964,0.010982335
0.029474467,0.0,2.4735928e-06,5.9604645e-08,0.0,0.00080245733,0.0046037436,8.940697e-08,0.98690176,0.00012922287
3.1083822e-05,3.1888485e-06,1.8775463e-06,1.013279e-06,6.2584877e-06,0.004022032,0.997415,2.9802322e-08,0.0027669668,0.018993676
0.04955548,0.0,4.9471855e-06,5.90086e-06,6.854534e-07,0.00022104383,0.0009897649,0.00021064281,0.9819742,3.6507845e-05
0.000343889,0.0,0.00022947788,1.6570091e-05,1.5199184e-06,6.183982e-05,0.00092703104,1.1920929e-05,0.013323128,0.87887275
0.99084747,0.0,2.3543835e-06,2.759695e-05,0.0,0.0011892021,0.0006865263,1.642108e-05,0.00014898181,0.0006121397
0.028158754,2.9802322e-08,3.4570694e-06,1.8179417e-06,1.0728836e-06,0.00015300512,0.0022300184,2.9802322e-07,0.003662318,0.9718782
0.0008087158,0.0,0.80588686,6.0796738e-06,0.0023483932,0.00015220046,0.00020009279,1.8686056e-05,0.0028868914,0.0024122596
1.7881393e-07,0.000103622675,1.013279e-06,0.99999,1.66893e-06,0.006644964,0.77663714,2.682209e-07,0.00015318394,9.23872e-07
0.99405205,0.0,3.3080578e-06,5.066395e-07,0.0,0.0019330084,0.00048810244,1.40070915e-05,2.0593405e-05,0.00030007958
0.62614256,2.0861626e-07,0.0001898706,5.954504e-05,2.9802322e-08,0.00094884634,0.00038978457,0.0019439757,0.0014794469,0.17569134
5.9604645e-08,0.00011590123,0.00041157007,0.16775918,0.000857085,0.9999999,0.006314099,3.874302e-06,0.0072576106,7.867813e-06
0.00037965178,5.364418e-07,4.4107437e-06,8.940697e-08,1.9669533e-06,0.00038531423,0.00387159,3.6895275e-05,0.00010931492,0.9847789
1.1920929e-06,0.9978987,0.0005507171,0.0029931664,4.762411e-05,0.8986846,0.0001001358,2.3245811e-06,0.09624931,1.04904175e-05
0.2870036,0.0,5.632639e-06,2.682209e-07,3.1650066e-05,0.00016254187,0.00036662817,0.12766317,0.00010919571,0.26117826
0.9956956,0.0,6.2584877e-07,2.3841858e-07,0.0,0.00066554546,0.00047811866,9.208918e-06,4.2140484e-05,0.00035059452
0.6358081,0.0,4.7683716e-07,7.95722e-05,2.0861626e-07,0.0005028546,0.0007754564,8.60095e-05,0.4983388,0.0003080368
0.23689869,6.645918e-06,0.02474761,5.2452087e-06,1.4007092e-06,0.004680574,0.0027478337,0.017852098,0.023766309,0.07049784
1.3500452e-05,2.9802322e-08,2.9802322e-07,4.1127205e-06,0.0,0.00016370416,0.004085183,5.9604645e-08,0.999326,0.00015163422
0.9950031,0.0,1.937151e-06,2.9802322e-07,2.9802322e-07,0.0010402501,0.00065636635,4.979968e-05,2.3812056e-05,0.0012217462
0.0010259748,0.0,4.7683716e-07,2.682209e-07,0.0,4.902482e-05,0.00058588386,5.364418e-07,0.99948364,6.431341e-05
0.015091896,0.0,3.1888485e-06,8.940697e-08,3.7550926e-06,7.647276e-05,0.00017678738,1.9282103e-05,0.991191,0.0002488196
0.0011918247,0.0,2.115965e-06,8.493662e-06,7.4505806e-07,0.00021004677,0.00081938505,4.053116e-06,0.9990245,8.261204e-05
9.536743e-07,1.013279e-06,5.093217e-05,8.022785e-05,3.5762787e-06,0.99999976,0.0023329556,8.6426735e-06,0.05393505,1.3649464e-05
0.00028544664,2.7954578e-05,0.0006249249,1.052022e-05,1.1324883e-06,0.0021409094,0.9984666,5.662441e-07,0.00013819337,3.6656857e-05
7.2717667e-06,0.9988946,3.8206577e-05,0.03388664,6.2584877e-07,0.0269579,0.00025239587,8.940697e-08,0.31483805,0.0002706647
0.0004775226,0.94427484,0.0008061528,0.00015354156,1.0728836e-05,0.0097156465,0.004443854,2.6524067e-06,0.0013463497,0.181128
