0,1,2,3,4,5,6,7,8,9
0.9944492,2.9802322e-08,2.3841858e-07,5.2154064e-06,5.9604645e-08,4.7177076e-05,0.0003463328,1.758337e-06,1.6182661e-05,0.0014425814
0.9875474,0.0,2.3245811e-06,6.854534e-06,2.9802322e-08,0.00023812056,0.00015947223,0.0011544526,1.0997057e-05,0.0008881092
0.00036343932,2.7418137e-06,5.3972006e-05,0.008700281,0.007936776,0.9833946,0.028294295,1.4007092e-06,4.0620565e-05,5.736947e-05
0.00013116002,6.133318e-05,2.682209e-07,0.9930689,6.556511e-06,0.0012125671,0.8997756,1.5199184e-06,0.00020390749,0.0031553209
8.991361e-05,0.0,0.0,0.9983305,5.9604645e-08,0.00047329068,0.0006400645,0.0,6.5773726e-05,9.217858e-05
0.99349463,0.0,1.5199184e-06,2.2649765e-06,0.0,0.00022387505,0.000102072954,0.0003310144,3.1292439e-06,0.00011470914
0.006701112,5.9604645e-08,5.9604645e-08,1.564622e-05,0.0,7.95722e-06,0.00095683336,2.8908253e-06,0.98513234,0.00042665005
1.1533499e-05,2.9802322e-07,6.714463e-05,0.99925745,0.87995064,0.00023460388,0.0026861727,1.7881393e-06,0.0013638437,1.4871359e-05
1.1622906e-06,1.1086464e-05,6.67274e-05,0.7664594,1.5795231e-06,4.6014786e-05,0.0042845905,8.940697e-08,0.9957149,1.1950731e-05
6.946921e-05,0.00012665987,5.26011e-05,1.5348196e-05,5.9604645e-07,0.0039713085,0.97329766,8.404255e-06,0.002703905,0.00012591481
0.008211523,7.3343515e-05,0.91980374,0.0011598766,0.0003746152,0.0002130866,0.0012538731,0.026296198,0.888065,0.00019055605
0.0008325279,0.0,1.168251e-05,2.95043e-06,2.9802322e-08,1.4603138e-06,5.3167343e-05,0.00012862682,0.9931502,8.136034e-06
3.3974648e-05,0.9178945,0.0004684627,0.9752611,1.5109777e-05,0.0011271238,0.014202327,0.0,0.32732627,0.0061903596
0.0018566251,0.5607588,0.0064561367,3.8564205e-05,0.00013506413,0.000100016594,0.00016796589,1.1920929e-07,0.01134032,0.35939056
0.17526838,0.0,2.5063753e-05,2.5123358e-05,0.0,4.976988e-06,0.0002901852,0.00014904141,0.8919897,1.385808e-05
0.00059092045,0.83989024,0.0004760921,4.172325e-06,1.1712313e-05,6.017089e-05,0.014787197,6.854534e-07,0.29894474,0.031650126
3.0696392e-06,0.0,3.784895e-06,0.9997157,6.529689e-05,9.536743e-07,0.00027644634,5.9604645e-08,0.03483358,9.23872e-07
0.9901022,0.0,5.9604645e-08,3.8444996e-06,5.662441e-07,2.9444695e-05,0.0009402633,1.013279e-06,2.8014183e-05,0.002598852
3.0457973e-05,0.017168105,0.102861196,0.011714369,0.09573215,0.011891067,0.8828691,0.0105941,0.45775056,0.011249006
7.06017e-05,1.9729137e-05,0.00020217896,0.001375705,8.735061e-05,0.00055140257,0.94291335,0.0008893907,0.8959755,0.00044459105
0.9945196,0.0,2.026558e-06,1.4454126e-05,1.1920929e-07,0.0003415048,0.00016835332,6.4104795e-05,1.2010336e-05,0.00033211708
0.018976718,4.7177076e-05,0.73033047,0.6985,5.5104494e-05,0.0010287464,0.0009995103,0.0004018247,0.00053551793,0.0042492747
0.99639165,0.0,4.172325e-07,1.2487173e-05,5.9604645e-08,0.00013035536,0.00019517541,1.12354755e-05,1.642108e-05,0.00037777424
0.011163205,0.089636505,0.0006465614,2.130866e-05,4.142523e-06,3.066659e-05,0.0011163056,3.695488e-06,0.7084451,0.04656747
0.0041023195,0.0,2.5451183e-05,0.00016131997,2.115965e-06,3.33786e-06,0.0005363822,8.5800886e-05,0.9855925,5.6654215e-05
0.0002976656,0.04030037,0.29218,0.11474058,0.0056794286,0.9442255,0.01186502,0.00044330955,0.07377669,0.0370754
0.21917254,0.006401241,0.00078088045,0.0005111098,4.7683716e-07,0.0025906265,0.31970972,0.0005094707,0.001198411,0.0024683774
0.97772336,0.0,1.8239021e-05,1.1920929e-06,8.940697e-08,0.0002861917,8.395314e-05,0.0035572946,3.4213066e-05,0.0056357384
0.11930472,0.0,9.0807676e-05,2.5361776e-05,1.1920929e-06,7.18832e-05,0.00024089217,0.92014265,0.0010743737,0.000608474
1.4990568e-05,0.98473275,0.0056598783,0.17039275,4.3809414e-06,0.0005040765,0.014222056,0.0,0.9639257,0.003916234
0.00025835633,5.966425e-05,1.0430813e-06,2.1725893e-05,5.9604645e-08,0.0003746152,0.99031115,6.2584877e-07,0.00026991963,3.8653612e-05
3.2365322e-05,0.00046098232,4.8547983e-05,4.5478344e-05,1.2516975e-06,0.00091278553,0.9872073,4.798174e-06,0.0014340281,0.00016281009
0.0089068115,7.1555376e-05,2.2649765e-06,0.00019109249,4.172325e-07,0.00078737736,0.96085083,9.834766e-07,2.4616718e-05,7.4356794e-05
0.00024113059,0.0,3.3706427e-05,0.9980953,0.0001065135,0.00017991662,0.0009354949,3.1888485e-06,2.5600195e-05,0.00022447109
0.921682,1.1920929e-07,2.8312206e-06,1.692772e-05,1.7881393e-07,5.90086e-05,0.000882715,1.3232231e-05,0.0505715,0.0006945133
0.99692893,0.0,2.0861626e-07,1.0102987e-05,2.9802322e-08,0.00013664365,0.0003822446,2.4437904e-06,3.3080578e-06,0.00028678775
0.95907784,4.4703484e-07,1.6987324e-06,5.2839518e-05,8.940697e-08,4.5835972e-05,0.0013273358,2.2649765e-06,0.02856198,0.00043600798
0.9968268,0.0,2.3841858e-07,8.493662e-06,0.0,5.120039e-05,0.0002155006,2.115965e-06,1.1354685e-05,0.0004246831
0.99729025,0.0,2.0861626e-07,1.1473894e-05,0.0,6.8962574e-05,0.00030857325,4.261732e-06,2.6583672e-05,0.0002450943
0.0024312139,0.0,1.1712313e-05,4.8428774e-05,5.9604645e-08,2.1755695e-06,0.00024044514,2.926588e-05,0.99263084,1.6450882e-05
0.0068353713,0.00032910705,0.89504236,0.0006122887,0.0019198656,0.000153929,0.00050777197,0.0117714405,0.19155467,0.0074985325
0.9808463,5.9604645e-08,1.4901161e-07,0.000141114,2.3841858e-07,3.132224e-05,0.0024175644,4.7683716e-07,0.008181393,0.00012743473
0.00019276142,5.3673983e-05,0.0006494224,2.3782253e-05,9.62615e-06,0.9764348,0.047505647,0.00012665987,0.009242386,0.000119149685
0.00013822317,0.9554303,0.00883469,0.0046158135,3.555417e-05,0.0008857548,0.0065751374,4.172325e-07,0.8478825,0.020729214
0.0011380315,0.0,1.4811754e-05,3.325939e-05,7.4505806e-07,2.682209e-06,0.00028571486,0.00010755658,0.98943603,0.0003761649
0.013590425,0.0,1.2695789e-05,1.1742115e-05,6.2584877e-07,3.811717e-05,0.0003261268,0.9830525,0.00016182661,0.00044861436
0.13251275,2.0861626e-07,6.9230795e-05,2.8520823e-05,5.4240227e-06,1.4126301e-05,0.0014261901,0.000117748976,0.86162984,0.0008390248
0.013175547,1.7881393e-07,0.0024746954,0.00067293644,0.00010612607,2.6732683e-05,0.0056796074,0.023341507,0.971226,0.0003452897
0.00065138936,0.8753183,0.07661542,1.40070915e-05,0.0008659363,0.00038531423,0.0040884316,5.364418e-07,0.045060724,0.053173214
0.9972795,0.0,2.9802322e-08,5.543232e-06,0.0,3.8921833e-05,0.0002757311,1.1324883e-06,4.4107437e-06,0.0002899468
0.004154116,0.0006955266,0.0021420121,0.0005954802,2.3066998e-05,0.9579295,0.02686894,0.0026499927,0.0003028512,0.0021844208
0.0014674664,0.92819643,0.06577402,2.1785498e-05,2.9921532e-05,0.0005622804,0.0047394037,2.9802322e-07,0.015319258,0.0058368742
1.6957521e-05,0.0023564696,0.007957876,0.0024439096,0.00026786327,0.9919729,0.02162078,0.00014284253,0.60940886,0.0003773868
0.24958754,2.9802322e-08,2.6017427e-05,2.592802e-06,1.013279e-06,1.1563301e-05,0.0004903972,0.009972274,0.6990696,0.007949799
0.9814481,1.3411045e-06,3.6358833e-06,1.6719103e-05,1.7881393e-07,4.169345e-05,0.00037193298,4.142523e-06,0.0009085834,0.006024599
0.00012505054,0.96895707,0.022522211,0.0008511543,2.9832125e-05,0.000616312,0.0051651597,0.0,0.14559236,0.0024366379
0.7399482,5.3942204e-06,2.2351742e-06,3.7252903e-06,2.9802322e-07,1.6778708e-05,0.0015434921,3.299117e-05,0.19723755,0.040934056
9.685755e-06,0.96593696,0.011952758,9.298325e-06,5.155802e-06,0.0013399422,0.00524655,1.1920929e-07,0.004727274,0.0051710904
0.9959818,0.0,4.2021275e-06,4.2170286e-05,0.0,0.00021612644,0.0002859831,0.00013589859,0.00011149049,5.5491924e-05
0.00017923117,0.89662427,0.0039930344,5.155802e-06,7.838011e-06,7.477403e-05,0.0005555153,2.9802322e-08,0.017404318,0.18395674
0.9987384,0.0,2.9802322e-08,2.8908253e-06,0.0,1.9341707e-05,0.00015932322,1.7881393e-06,1.7285347e-06,6.0260296e-05
0.000315547,2.1219254e-05,4.3064356e-05,6.2942505e-05,5.066395e-07,0.9877317,0.013163567,6.7055225e-06,0.008085519,2.0503998e-05
0.0004349053,2.0593405e-05,0.00030070543,0.036785424,0.90699446,0.91735935,0.12574694,8.583069e-06,0.0001219511,0.00028026104
0.00615564,0.0001707077,1.4901161e-06,2.9802322e-08,0.00017005205,1.8775463e-06,8.678436e-05,7.212162e-06,0.13814887,0.9420279
0.05160144,4.518032e-05,1.4692545e-05,5.787611e-05,6.8843365e-06,5.0991774e-05,0.012791365,4.9978495e-05,0.9262254,0.015891075
0.9888216,2.9802322e-08,1.4603138e-05,1.0848045e-05,2.9802322e-08,0.0002323091,0.0001064837,0.0006595552,0.00010046363,0.0017163754
0.997218,0.0,1.7881393e-07,6.28829e-06,0.0,0.0001655817,0.00016888976,1.9103289e-05,3.963709e-06,4.8816204e-05
0.00021532178,7.748604e-07,0.025941312,0.00016084313,0.0082550645,1.3381243e-05,0.00036752224,0.0019295812,0.98508525,0.00060874224
0.006539285,5.9604645e-07,0.0029274225,1.8060207e-05,4.953146e-05,0.00010576844,0.0022524595,0.5998392,0.041800737,0.036640584
0.025417209,0.0,7.95722e-06,6.7055225e-06,0.0,1.9013882e-05,3.1918287e-05,0.94237083,1.6599894e-05,0.00012654066
0.019370377,5.9604645e-08,1.1622906e-06,6.7442656e-05,5.9604645e-08,5.3942204e-06,0.0005379617,5.6922436e-06,0.9466531,0.0005610585
0.99642277,0.0,6.2584877e-07,1.3411045e-05,2.9802322e-08,0.00016474724,0.00018116832,1.0699034e-05,1.9133091e-05,0.00022470951
0.0008137524,0.0,4.5597553e-06,0.99772716,3.2484531e-06,0.00011509657,0.0016374588,1.1920929e-06,9.8377466e-05,0.00018972158
0.0018701255,0.0,2.682209e-07,0.99644375,1.5795231e-06,0.00030115247,0.00385651,7.748604e-07,3.4332275e-05,0.0005121529
7.683039e-05,0.0,8.940697e-08,0.99848145,1.0728836e-06,0.00028583407,0.0018423498,5.9604645e-08,4.3988228e-05,0.00013643503
0.0031310022,0.0,1.6510487e-05,4.23491e-05,7.4505806e-07,2.5182962e-05,0.0011502802,0.00029405951,0.98378193,0.0004644096
0.77313393,0.0,5.00679e-05,4.23193e-06,4.172325e-07,0.00019928813,0.000119030476,0.39431414,0.00012296438,0.0032305717
0.9753521,2.0861626e-07,3.644824e-05,1.4841557e-05,1.4901161e-07,0.00029292703,0.0003182292,0.0006173849,0.0001399219,0.010803163
0.66689396,0.0,4.6133995e-05,7.122755e-06,0.0,9.298325e-06,0.000687927,0.07710934,0.20054036,2.193451e-05
0.84388316,0.0,1.4603138e-06,0.08016977,0.0,0.00029739738,0.00051391125,4.4554472e-05,2.7894974e-05,0.00015029311
0.9933946,2.9802322e-08,6.556511e-07,5.2452087e-06,5.9604645e-08,6.181002e-05,0.00025725365,1.2755394e-05,4.503131e-05,0.00090557337
0.5853937,1.1920929e-07,1.013279e-06,2.3841858e-07,0.7273323,0.00017869473,0.004015416,1.9043684e-05,1.8507242e-05,0.031179994
0.9960796,0.0,5.930662e-06,1.1652708e-05,0.0,0.00015154481,8.392334e-05,0.00023052096,3.20673e-05,0.000128299
0.99885094,0.0,5.9604645e-08,4.5001507e-06,0.0,9.575486e-05,0.0001718998,3.6358833e-06,1.758337e-06,4.1782856e-05
0.0004517436,3.5762787e-07,0.00041875243,0.0007099807,0.0009822547,2.2560358e-05,0.0015120804,0.00012090802,0.99018407,7.790327e-05
0.99354434,0.0,2.8908253e-06,6.735325e-06,8.940697e-08,0.00034627318,0.00019270182,0.0001321733,1.1622906e-05,0.0008889735
4.7802925e-05,7.921457e-05,0.00042030215,0.00012683868,0.00013688207,0.8659589,0.05924517,3.6597252e-05,0.9224541,5.0634146e-05
0.00013422966,6.2584877e-06,3.6358833e-06,2.9802322e-08,2.4914742e-05,4.4703484e-07,5.662441e-07,3.5762787e-07,0.0012100637,0.99748605
0.000119924545,8.940697e-08,6.2584877e-07,0.997896,7.1823597e-06,0.00017043948,0.0012541711,1.4901161e-07,0.00026413798,0.00016027689
0.00021800399,0.91349363,0.022911489,0.007991403,0.0048691332,0.00045219064,0.0018261075,1.7881393e-07,0.27287066,0.066608846
0.047614783,0.0,0.00018334389,5.9068203e-05,4.6789646e-06,1.3649464e-05,0.0008099973,0.002774477,0.94603187,0.00042673945
0.9857617,0.0,5.9604645e-08,2.3841858e-06,0.0,1.5228987e-05,0.00026977062,6.2286854e-06,0.001306951,0.00057944655
4.6908855e-05,2.3841858e-06,1.1920929e-07,0.0,2.3245811e-06,0.0,0.0,0.0,0.0012165904,0.9990918
0.68163514,0.0,5.5104494e-05,7.6293945e-06,1.7881393e-07,8.8483095e-05,9.536743e-05,0.7388874,0.0008456707,0.00045093894
2.1159649e-05,0.011651963,0.05333355,0.014469445,0.0006861985,0.9964205,0.011735469,7.387996e-05,0.18895856,0.0011511147
0.57284117,3.5762787e-07,3.874302e-07,0.0002539158,8.940697e-08,3.272295e-05,0.0015945733,5.364418e-07,0.18605438,0.00041615963
0.0004710853,0.0001334548,0.78089976,0.011774898,0.00033923984,0.00016075373,0.0010206997,0.0005579293,0.939796,6.0260296e-05
0.6636717,8.940697e-08,5.888939e-05,4.673004e-05,2.1368265e-05,0.0024593174,0.0007392764,0.21735418,0.00013539195,0.073672295
0.0008787811,0.017610937,9.030104e-06,0.9942771,2.9742718e-05,0.0010689497,0.89704823,6.28829e-06,0.021608114,0.015385002
0.0017179847,6.0498714e-06,1.7404556e-05,8.940697e-08,0.000106066465,1.0073185e-05,0.00012636185,0.0013728142,0.0011419654,0.9525954
0.97707,1.1920929e-07,7.534027e-05,3.7282705e-05,4.172325e-07,0.00035700202,0.00019592047,0.00069752336,0.00051259995,0.0023767054
0.9952841,2.9802322e-08,2.0563602e-06,8.481741e-05,2.0861626e-07,0.0002772212,0.00043812394,1.4960766e-05,9.724498e-05,0.00032016635
2.6851892e-05,1.4901161e-07,0.0010358393,0.00030970573,0.027327627,1.4215708e-05,0.0013583004,7.8976154e-05,0.9948869,2.5987625e-05
0.058296204,0.0002515614,2.7030706e-05,1.9401312e-05,0.004342377,3.5315752e-05,0.003952801,0.00016948581,0.47528198,0.57287574
0.9976277,0.0,8.940697e-08,1.9669533e-06,0.0,0.00010198355,0.00018981099,5.6028366e-06,7.1525574e-07,0.00020974874
8.9854e-05,0.91634274,0.0498119,0.967628,0.007796675,0.2747869,0.15668428,1.1920929e-07,0.8608738,0.00059071183
0.00030833483,1.8179417e-06,4.8935413e-05,4.7773123e-05,3.3676624e-06,0.9899924,0.0112045705,4.953146e-05,3.8951635e-05,6.8724155e-05
5.301833e-05,3.2186508e-05,0.53741074,0.9933331,0.0021884441,5.477667e-05,0.00042954087,1.731515e-05,0.18288726,7.8082085e-05
0.9608356,2.6226044e-06,2.8014183e-06,8.493662e-06,4.7683716e-07,2.5838614e-05,0.0005633533,7.033348e-06,0.004342824,0.01573214
0.0002180934,0.0,8.940697e-08,0.999542,3.5762787e-07,4.8279762e-05,0.001927644,2.9802322e-08,3.8027763e-05,1.7553568e-05
0.99380076,0.0,1.7881393e-06,8.910894e-06,2.9802322e-08,0.00018873811,0.0001231134,8.845329e-05,3.5613775e-05,0.0003747046
0.0011484325,1.2516975e-06,0.00020840764,0.5350494,0.9777881,0.0021360815,0.012871623,9.208918e-06,0.00018411875,0.00027695298
6.890297e-05,0.946489,0.0014108717,0.34435624,9.685755e-06,0.0011483133,0.02301979,0.0,0.95474905,0.009604037
0.9918257,8.940697e-08,0.0,5.6028366e-06,1.1920929e-07,1.9729137e-05,0.00060141087,5.066395e-07,4.8965216e-05,0.001401037
2.1606684e-05,0.012257934,0.81864023,0.015056819,1.2695789e-05,4.938245e-05,0.0009664893,5.364418e-07,0.9325163,9.894371e-06
0.9711216,3.9041042e-06,4.813075e-05,7.7188015e-06,1.7881393e-06,0.00010859966,0.00026023388,4.5984983e-05,0.0005246699,0.016968757
0.00019261241,7.31349e-05,0.0006366968,0.00044602156,3.451109e-05,0.923816,0.053130597,0.00036662817,0.7863543,0.00025627017
2.4437904e-05,0.0020760298,0.010858893,0.0006671846,0.0028743148,0.9822712,0.021809787,3.1590462e-06,0.0013896227,0.0002630353
0.00043436885,1.0877848e-05,0.00029307604,0.9974594,3.0994415e-05,0.00032302737,0.011303365,1.1622906e-06,0.0002297759,0.0010974109
5.8621168e-05,0.0,5.3942204e-06,8.404255e-06,1.7881393e-07,2.95043e-06,0.0002477765,0.99861294,1.4990568e-05,6.3598156e-05
0.9942857,2.0861626e-07,4.172325e-06,1.2069941e-05,0.0,0.00017946959,0.00026845932,9.596348e-06,8.022785e-05,0.0009867251
0.9929627,0.0,1.7285347e-06,7.6293945e-06,2.9802322e-08,0.00014513731,0.00016984344,4.425645e-05,0.0001219511,0.0003901422
0.99844253,0.0,2.0861626e-07,1.0967255e-05,0.0,5.2303076e-05,0.00021579862,1.2218952e-06,1.0460615e-05,9.778142e-05
0.17795539,1.7881393e-07,1.1026859e-06,4.1097403e-05,5.9604645e-07,7.4207783e-06,0.0009447336,2.2232533e-05,0.7701341,0.003355831
0.95053136,3.4928322e-05,3.8176775e-05,0.00035467744,5.811453e-06,0.00013074279,0.001562357,1.1116266e-05,0.020316005,0.011050373
3.516674e-05,8.493662e-06,5.632639e-06,0.0,5.543232e-06,1.4901161e-07,1.4901161e-07,1.7881393e-07,0.00020611286,0.9990266
0.0006147325,0.009633005,7.212162e-05,4.938245e-05,0.00018012524,9.715557e-06,8.845329e-05,1.6391277e-06,0.22992814,0.93946105
0.00043851137,0.28268602,0.111409605,0.003442198,0.016932815,0.0033021271,0.014119506,2.4616718e-05,0.009776741,0.58724165
0.016022593,2.9802322e-08,2.2470951e-05,0.00016266108,2.8312206e-06,1.2010336e-05,0.0014534891,3.144145e-05,0.97633326,8.434057e-05
0.9857062,2.3841858e-07,8.672476e-06,4.7266483e-05,5.662441e-07,0.00027385354,0.0003322959,5.0514936e-05,0.0002849102,0.0030604005
1.3113022e-06,0.9924867,0.009776324,1.0728836e-06,1.3113022e-06,0.0016272962,0.0013042688,0.0,0.10064685,0.0006766319
0.04942146,3.516674e-06,1.335144e-05,0.00040057302,8.6426735e-07,7.6681376e-05,0.0058546364,0.000115692616,0.9389806,0.0056428015
0.0005542934,0.00014361739,2.4825335e-05,7.945299e-05,5.7816505e-06,0.00046992302,0.97526616,1.1205673e-05,0.00044506788,0.00045323372
0.85049975,4.172325e-07,3.874302e-07,2.1904707e-05,0.0,1.4960766e-05,0.00053727627,1.1622906e-06,0.09020004,0.0017649829
2.1547079e-05,0.96778697,0.004420489,0.973199,8.72612e-05,0.0013161004,0.0034159124,0.0,0.082756996,0.0045353174
0.000117361546,1.7881393e-07,0.00014859438,0.9840741,0.020501792,0.0009802878,0.0033533871,0.0001372695,0.000104129314,0.0032534301
0.3853741,7.6293945e-06,2.6762486e-05,0.25946483,0.0002824962,0.00091308355,0.0022972822,7.122755e-06,0.003527671,0.008615017
0.28367016,1.30832195e-05,1.0728836e-06,1.4424324e-05,2.682209e-07,3.015995e-05,0.0033813715,3.3974648e-06,0.5815526,0.01061669
0.20875669,8.741021e-05,0.06549677,0.00032043457,1.3411045e-06,0.0003130734,0.0020143092,0.000792861,0.74357736,0.00015440583
0.00013589859,0.0,0.003547579,0.00030854344,8.943677e-05,5.6922436e-06,0.00059375167,0.0005951822,0.9980968,2.5331974e-06
0.3629468,2.0861626e-07,6.0528517e-05,6.0617924e-05,2.9802322e-07,2.4229288e-05,0.0028111339,0.0001911521,0.8704448,0.00040104985
0.9884731,2.9802322e-08,8.7320805e-06,4.4703484e-05,0.0,0.00013950467,0.00017249584,0.00012722611,0.0005053878,0.0006457269
0.9891838,2.0861626e-07,6.2584877e-07,8.255243e-06,2.0861626e-07,3.245473e-05,0.00035327673,2.5629997e-06,0.00015711784,0.0031473935
0.99805194,0.0,2.9802322e-08,5.722046e-06,0.0,4.6521425e-05,0.00018304586,2.115965e-06,2.3841858e-06,0.00016847253
0.0010611713,0.0,1.4901161e-07,0.9986098,2.026558e-06,0.00017362833,0.0055285394,2.0861626e-07,2.220273e-05,0.00015351176
0.00966984,5.9604645e-08,1.4305115e-06,1.218915e-05,5.9604645e-08,1.8566847e-05,0.0010912716,6.4969063e-06,0.9768249,0.00029942393
0.94729996,0.0,4.3958426e-05,4.976988e-06,2.9802322e-07,0.00016385317,8.34167e-05,0.012394011,0.0009226501,0.0027961135
0.99353504,5.9604645e-08,4.261732e-06,3.4362078e-05,8.940697e-08,0.00026330352,0.00027617812,2.5868416e-05,5.13494e-05,0.0010274351
0.010328889,5.9604645e-08,1.8000603e-05,6.490946e-05,2.1457672e-06,1.6778708e-05,0.00096586347,0.00015518069,0.97489715,0.0006701648
0.99678534,0.0,8.940697e-08,5.155802e-06,0.0,3.093481e-05,0.00019353628,1.4603138e-06,1.0699034e-05,0.00024914742
0.5357544,5.453825e-06,2.2351742e-06,7.301569e-06,8.165836e-06,2.4676323e-05,0.0028867722,8.314848e-06,0.2952082,0.02195245
0.00026214123,0.5805677,0.05381924,1.4305115e-06,0.0002385974,0.0004197955,0.0048117638,7.748604e-07,0.0008094311,0.12967107
0.009408414,0.00020077825,5.3435564e-05,0.0007119477,5.662441e-07,0.0025919676,0.95559335,2.3901463e-05,0.0001834333,0.00020322204
0.00023978949,0.0011872351,0.0023242235,0.0017178059,0.0001373887,0.9732925,0.06464821,9.498e-05,0.50664395,0.00016918778
0.0015406907,2.3841858e-07,0.0001296997,0.0049724877,2.6226044e-06,1.3232231e-05,0.0030967593,6.4074993e-06,0.9925574,2.4020672e-05
0.011374831,1.4066696e-05,4.440546e-06,0.0,8.6694956e-05,1.013279e-06,6.4373016e-06,2.1457672e-06,0.00091791153,0.9822836
0.00015699863,0.0,0.026996642,0.0008223355,0.0036596358,1.1622906e-06,0.002687186,0.6125383,0.9924023,3.5464764e-06
0.00024926662,0.96313727,0.008377254,0.0012785494,8.34465e-06,0.00063818693,0.0009576082,2.9802322e-08,0.0625467,0.022957265
8.666515e-05,1.7881393e-07,8.046627e-06,0.9981165,0.0007530749,0.00026124716,0.0019491017,1.4603138e-06,0.0006107688,0.00028640032
0.9987966,0.0,1.7881393e-07,5.543232e-06,0.0,0.00013443828,0.00015923381,8.165836e-06,1.1622906e-06,4.1007996e-05
0.5215656,8.940697e-08,0.0015933514,5.90086e-05,2.4616718e-05,0.000634104,0.00096186996,0.6935733,0.0010704696,0.011688322
0.00051251054,6.4074993e-06,8.881092e-06,0.00021368265,2.9802322e-07,0.9914814,0.004958123,1.2516975e-06,0.00023669004,1.2755394e-05
7.1674585e-05,6.2584877e-07,4.172325e-07,0.0,7.6293945e-06,8.940697e-08,0.0,1.7881393e-07,0.00029569864,0.998958
3.1590462e-06,0.9868648,0.003267765,0.0019591153,8.940697e-08,0.0017955601,0.010467738,0.0,0.9828051,0.00025323033
0.0003016889,0.011448026,0.00087046623,0.99947375,0.0144764185,0.0009250045,0.64485496,2.9802322e-08,0.0005338192,0.00032186508
0.100700706,2.0861626e-07,0.00021222234,8.520484e-05,2.82228e-05,1.2218952e-05,0.0006214678,0.003932953,0.8547144,0.006333381
0.013671011,0.0006045997,1.6391277e-06,0.009649783,1.7881393e-07,0.00015574694,0.23386401,0.00010621548,0.7516373,0.08235332
0.99460745,8.940697e-08,7.748604e-07,2.771616e-05,0.0,3.376603e-05,0.0003966987,1.847744e-06,0.00027620792,0.0007889867
0.4362675,0.0,1.4603138e-06,3.1888485e-06,0.0,1.0728836e-06,0.0005246699,5.7160854e-05,0.73584914,1.218915e-05
0.0001784265,0.0,4.3720007e-05,8.049607e-05,3.8444996e-06,1.2218952e-06,0.00017955899,1.92523e-05,0.99643576,1.2099743e-05
9.9778175e-05,0.033841908,0.002427429,0.001532644,0.001968503,0.0015690923,0.9340568,2.3186207e-05,0.0030064285,0.00816983
0.99909484,0.0,2.9802322e-08,7.3611736e-06,0.0,3.027916e-05,0.0002399087,5.662441e-07,2.7120113e-06,3.7431717e-05
0.99555635,2.9802322e-08,3.5762787e-07,1.9162893e-05,1.1920929e-07,0.000141114,0.0003877282,7.122755e-06,2.1249056e-05,0.0003809929
0.00026583672,1.5497208e-06,3.1292439e-06,0.0,6.4730644e-05,2.3841858e-07,4.172325e-07,1.2814999e-06,0.0009773672,0.99721646
0.9967662,0.0,3.33786e-06,4.914403e-05,5.9604645e-08,0.00034338236,0.00027561188,4.5597553e-05,1.79708e-05,0.00018027425
7.301569e-05,0.96384853,0.01723665,1.1622906e-06,5.066395e-06,0.00037160516,0.000998348,2.9802322e-08,0.013296694,0.008935094
1.2308359e-05,1.7881393e-07,6.750226e-05,0.9996425,0.7810081,0.00032907724,0.0039739013,1.4603138e-06,0.0010296702,4.2915344e-06
0.00025358796,1.1742115e-05,4.7683716e-07,3.170967e-05,1.4901161e-07,0.0006968081,0.99259084,3.5762787e-07,1.6838312e-05,1.12354755e-05
0.9967971,0.0,1.3709068e-06,3.0994415e-06,0.0,0.000102967024,7.170439e-05,0.00015074015,6.6161156e-06,0.00016006827
9.486079e-05,0.022144705,0.9056673,0.00035196543,0.00039321184,4.056096e-05,0.00019320846,5.7816505e-06,0.82067907,5.9455633e-05
2.6524067e-06,8.4728e-05,0.0027276278,0.002907455,8.317828e-05,0.9972334,0.0026710927,3.427267e-06,0.0052603185,0.00019162893
0.9955759,0.0,2.0861626e-07,3.7252903e-06,0.0,3.749132e-05,0.00018665195,2.9206276e-06,2.9414892e-05,0.00074860454
0.002234131,0.00042521954,0.010638297,0.00052154064,1.50203705e-05,0.9817846,0.012907028,0.0005309582,0.00025466084,0.0003938079
0.00082057714,0.0,1.296401e-05,1.013279e-06,2.3841858e-07,1.4305115e-06,4.6610832e-05,0.0005636215,0.9887905,9.1671944e-05
1.591444e-05,0.011441916,0.001223594,0.0075729787,0.00013303757,0.037486732,0.95163333,3.746152e-05,0.21668431,0.0017881691
3.8027763e-05,0.9627538,0.012172818,0.33308882,9.62317e-05,0.0024921298,0.023182333,2.9802322e-08,0.26775038,0.006352663
2.3841858e-05,1.4394522e-05,0.0006275177,0.0011532307,2.0295382e-05,0.9927705,0.0037161708,1.9729137e-05,0.026205063,0.00021442771
0.00052791834,0.00025707483,8.404255e-06,0.0,8.127093e-05,4.7683716e-07,4.172325e-06,2.682209e-07,0.0033769608,0.9917794
0.7896832,2.6524067e-06,2.682209e-07,7.480383e-06,1.4901161e-07,1.8030405e-05,0.00343436,1.7285347e-06,0.10703817,0.005796641
0.20558685,0.0,6.0796738e-06,2.2649765e-06,1.1920929e-07,2.861023e-06,0.0002385974,0.0001654923,0.7897909,0.000248909
4.386902e-05,1.04904175e-05,0.00558877,0.00279665,0.0002105236,0.9931581,0.005567968,0.0010733306,0.014878809,0.009217054
9.924173e-06,0.24225071,0.36785945,0.0036213994,9.834766e-07,0.00021877885,0.00077208877,3.2782555e-07,0.96613115,2.3841858e-05
0.00690645,0.00015819073,0.0001989305,2.7418137e-06,0.12211123,1.1384487e-05,0.0015434325,0.00011536479,0.6254501,0.12917474
3.9041042e-05,0.016109973,0.033153415,0.015868396,0.013224453,0.919246,0.075642854,0.0007107854,0.8986304,0.0017261505
0.97757876,2.9802322e-08,2.0295382e-05,2.0742416e-05,4.7683716e-07,0.00031659007,0.00019699335,0.00062689185,0.00076529384,0.0012986064
0.92345953,1.0848045e-05,8.571148e-05,7.7039e-05,2.2351742e-06,0.00014409423,0.00058841705,0.00014773011,0.010874152,0.047929972
0.012289792,0.00051802397,0.001485616,0.0103343725,0.002980709,0.96077394,0.022578508,0.037292033,0.0006695986,0.004384339
0.00022560358,4.142523e-06,0.8440595,0.010978013,0.011480033,6.747246e-05,0.0009897053,0.0022592545,0.9720621,4.2527914e-05
0.0006315112,0.2680841,0.4632968,0.006778121,0.041403294,0.7325118,0.24347904,0.002490431,0.4761856,0.010466039
0.0012037456,0.0061354935,0.0021933615,0.77547413,0.006463468,0.00042322278,0.7345041,0.0021172464,0.65493596,0.044232488
0.0003860891,2.9802322e-08,0.00012791157,0.9678101,0.9602784,0.0013149083,0.004581332,3.2782555e-05,4.2706728e-05,7.110834e-05
0.009490192,3.9696693e-05,0.99280834,0.21228758,2.9802322e-05,0.0002142787,0.00012609363,0.0005899966,0.0010771155,0.00024786592
0.019171208,0.0,2.1457672e-06,3.874302e-05,1.2516975e-06,7.033348e-06,0.00058341026,2.0802021e-05,0.94783133,0.00032302737
4.4852495e-05,0.06375143,0.12581849,0.99835086,0.003840834,0.00029963255,0.00062969327,0.0,0.018672973,8.204579e-05
0.9976119,0.0,2.9802322e-08,2.2351742e-06,0.0,2.041459e-05,0.00016617775,1.013279e-06,3.993511e-06,0.00032952428
0.7833766,6.020069e-06,5.364418e-07,0.0003336966,1.4901161e-07,0.00041225553,0.40366852,5.77569e-05,0.000104397535,0.00055348873
0.00011128187,2.9802322e-07,0.00019305944,0.00076282024,7.736683e-05,9.506941e-06,0.0008240938,9.685755e-06,0.99526596,2.2292137e-05
0.0029329658,5.9604645e-08,4.351139e-06,0.9958075,8.672476e-06,0.0002450347,0.0013998747,8.34465e-07,3.090501e-05,6.1273575e-05
0.9954225,0.0,4.7683716e-07,1.0728836e-06,8.940697e-08,0.00018325448,0.00016912818,2.8014183e-05,2.4735928e-06,0.0006502569
0.060506582,1.1920929e-07,3.0994415e-06,0.9248299,3.97861e-05,0.0017611682,0.0025288165,1.2516975e-05,8.323789e-05,0.0014413893
0.029997349,8.940697e-08,2.3186207e-05,4.1395426e-05,0.00014138222,3.963709e-06,0.00070267916,7.659197e-05,0.9046602,0.0010460317
0.00044077635,7.3611736e-06,5.8233738e-05,0.000111192465,1.3709068e-06,0.99023867,0.012820095,1.2606382e-05,0.0009710789,5.635619e-05
0.99664855,5.9604645e-08,3.2782555e-07,0.00014832616,0.0,0.00015640259,0.00079762936,2.4735928e-06,1.8447638e-05,0.0003105998
0.001113534,1.1920929e-07,4.23491e-05,0.9951269,9.000301e-05,0.0015191734,0.0031692982,4.708767e-06,1.2516975e-05,0.002198398
0.9969505,8.940697e-08,2.2053719e-06,7.6293945e-06,0.0,8.505583e-05,0.00022467971,1.0967255e-05,5.4836273e-05,0.00051665306
0.0008842051,0.0,1.2546778e-05,2.0086765e-05,8.940697e-07,2.771616e-06,0.00013813376,0.9975364,3.811717e-05,5.620718e-05
0.003240168,7.477403e-05,2.0056963e-05,5.915761e-05,8.940697e-07,0.021205842,0.94425976,0.00037822127,0.11919528,0.00018551946
0.000639081,2.9802322e-08,7.31349e-05,0.00010049343,3.5762787e-07,5.6922436e-06,0.00023072958,2.8342009e-05,0.99350226,2.0980835e-05
0.99588794,2.9802322e-08,9.23872e-07,1.5765429e-05,2.9802322e-08,0.00014162064,0.00020423532,7.6293945e-06,3.0696392e-05,0.0005246699
0.02110213,0.00016075373,0.0001116097,4.827976e-06,2.0325184e-05,1.552701e-05,0.0011367202,5.5372715e-05,0.80670595,0.03499499
0.012809813,3.993511e-06,1.8894672e-05,0.0004476905,2.8908253e-06,0.9822018,0.01611936,2.0056963e-05,6.2167645e-05,7.274747e-05
0.0017748475,0.0,2.3841858e-07,0.9958459,3.7550926e-06,0.00021854043,0.0010122955,4.172325e-07,0.00027030706,6.106496e-05
0.50409955,0.00023269653,0.010951102,0.0008485019,9.730458e-05,0.00074875355,0.0013115704,0.001477629,0.041140705,0.09171349
0.00018191338,0.8290546,0.035701156,6.622076e-05,0.008554876,0.0060016215,0.013695657,3.0994415e-05,0.02575624,0.20563069
0.9955044,0.0,5.9604645e-08,1.2487173e-05,0.0,4.518032e-05,0.0004708469,2.7120113e-06,2.2679567e-05,0.00038293004
0.9734539,5.9604645e-08,1.21593475e-05,4.887581e-06,4.4703484e-07,0.0002079606,0.00036150217,0.0012286901,0.00021329522,0.0026575923
0.0003453493,6.467104e-06,6.6906214e-05,0.9810356,0.00088250637,0.557963,0.0025976896,2.4855137e-05,0.0060544014,0.0019176602
0.9940658,0.0,0.0,5.990267e-06,2.9802322e-08,2.3156404e-05,0.00044435263,1.4007092e-06,2.6643276e-05,0.0005232394
0.0004054606,4.4703484e-06,5.581975e-05,0.0019524097,8.493662e-06,0.9935107,0.0063430667,2.5451183e-05,0.00047576427,0.00018045306
0.00013589859,0.9704006,0.020245492,0.003881842,1.6212463e-05,0.0014976561,0.00682047,3.2782555e-07,0.9225118,0.0025901794
0.99060917,1.1920929e-07,2.0861626e-07,5.6922436e-06,2.9802322e-08,1.7821789e-05,0.00030729175,1.1920929e-06,0.00020444393,0.0019188523
0.99523985,2.9802322e-08,1.5795231e-06,0.00065270066,2.9802322e-08,0.00025218725,0.0005014539,1.4722347e-05,4.5210123e-05,0.00015053153
0.014671832,8.499622e-05,2.2649765e-06,3.7759542e-05,2.682209e-07,0.00079628825,0.94632983,1.4901161e-06,2.0056963e-05,5.248189e-05
0.009809256,0.0,4.810095e-05,1.5079975e-05,2.3245811e-06,1.680851e-05,0.00037175417,0.98805475,0.00014340878,0.00056287646
8.225441e-06,1.2427568e-05,2.270937e-05,2.1368265e-05,1.4573336e-05,0.9833169,0.02532515,2.3841858e-07,0.0010220706,5.90086e-06
0.018312722,0.8843626,0.021592408,0.00015953183,2.1904707e-05,0.40444607,0.0022410154,7.599592e-06,0.038920432,0.005115092
0.99827063,0.0,2.9802322e-08,9.030104e-06,0.0,2.9861927e-05,0.0002516508,8.34465e-07,7.659197e-06,0.00013622642
4.3988228e-05,3.5762787e-07,0.0007272661,0.33572835,8.106232e-06,1.3709068e-06,0.00041815639,5.662441e-07,0.99125874,3.3676624e-06
0.9959134,0.0,6.556511e-07,1.31726265e-05,0.0,0.00014585257,0.00015231967,1.9192696e-05,2.092123e-05,0.0002797842
2.4706125e-05,0.0,3.9041042e-06,0.999576,0.010181516,9.521842e-05,0.00079634786,5.9604645e-07,3.090501e-05,5.841255e-06
0.00855884,4.6610832e-05,6.246567e-05,0.5989668,0.0050518215,0.9572177,0.014710546,8.761883e-06,0.0005376637,0.00048196316
0.9963833,0.0,5.364418e-07,3.874302e-06,2.9802322e-08,0.00023141503,0.00014075637,6.2286854e-05,3.5762787e-06,0.00035095215
1.6659498e-05,1.8417835e-05,1.7642975e-05,0.0012547076,5.90086e-06,1.9162893e-05,0.96856344,0.00012555718,0.9546981,0.0002322793
0.9201925,1.3113022e-06,7.909536e-05,2.7269125e-05,3.4451485e-05,0.0004067421,0.0005815029,0.000415802,0.0021335185,0.029682606
0.8294406,8.34465e-07,1.6987324e-06,8.943677e-05,0.00035133958,7.8350306e-05,0.0011290312,4.1097403e-05,0.000754267,0.09648466
0.9945146,0.0,1.0728836e-06,9.5665455e-06,0.0,0.00013491511,0.00020521879,2.3692846e-05,3.4362078e-05,0.00024017692
0.0019186437,0.0,1.4305115e-06,2.5957823e-05,2.9802322e-08,1.3113022e-06,0.00024241209,8.672476e-06,0.99129456,3.1471252e-05
0.19053474,1.013279e-06,3.644824e-05,4.479289e-05,6.2584877e-07,5.77271e-05,0.0009468198,0.000106841326,0.76091814,0.0027757883
0.04542944,1.2457371e-05,5.8591366e-05,0.00010308623,0.00010436773,6.2823296e-05,0.0019902885,0.0017286539,0.6541527,0.23622462
0.8598846,0.0,1.1473894e-05,3.6746264e-05,0.0,4.929304e-05,0.0004606843,5.698204e-05,0.18168783,5.7786703e-05
6.619096e-05,5.9604645e-08,1.1920929e-07,0.9987272,8.285046e-06,0.00062310696,0.0013683736,8.940697e-08,3.1799078e-05,6.452203e-05
0.0010538399,1.2606382e-05,2.0861626e-07,2.9802322e-08,1.4901161e-07,4.3064356e-05,0.0035227835,1.0430813e-05,0.8251264,0.04581043
5.0127506e-05,0.00014337897,0.00023287535,0.9994912,0.0003092587,0.0010524392,0.005569428,8.940697e-08,0.0071627796,0.00034967065
0.00023391843,8.940697e-08,6.854534e-07,0.99881446,0.00020119548,0.0010092854,0.005624801,2.682209e-07,1.8179417e-05,0.00025999546
0.99111545,2.9802322e-08,1.0609627e-05,9.715557e-06,8.940697e-08,0.000277251,0.00016325712,0.00016763806,9.343028e-05,0.0015200377
0.16209239,1.7881393e-07,5.7160854e-05,3.1292439e-06,0.0029288232,1.5735626e-05,0.0017246604,0.0021711588,0.6118371,0.007402271
0.000351727,0.003132552,0.0011206567,0.9335775,0.8681278,0.0025833845,0.84081674,1.579523e-05,0.0032364726,0.0009899437
0.99872506,0.0,1.1920929e-07,1.1742115e-05,0.0,8.940697e-05,0.00020134449,3.3080578e-06,3.784895e-06,5.0246716e-05
0.013666809,9.834766e-07,7.57277e-05,0.00024607778,2.0474195e-05,1.2665987e-05,0.0009061396,0.00014606118,0.95579064,0.002322644
0.008032829,6.854534e-07,6.124377e-05,0.00161618,5.3942204e-06,1.963973e-05,0.0019111931,8.672476e-06,0.97882205,7.915497e-05
0.00017568469,0.0,0.00012257695,0.00018757582,1.6570091e-05,4.887581e-06,0.0004003346,0.0003388524,0.9966103,2.592802e-05
2.0354986e-05,0.9793454,0.003104061,2.7507544e-05,1.9669533e-06,0.0002503097,0.002341181,0.0,0.73829424,0.0107011795
4.658103e-05,0.0,6.854534e-07,0.99964345,0.0006387234,0.00013440847,0.0007649362,1.4901161e-07,4.529953e-05,9.953976e-06
0.00014770031,0.09951809,0.6025234,0.009085447,0.0007080436,0.98985654,0.015269399,0.0002348721,0.018216908,0.0018454492
0.0409801,7.18832e-05,0.00020563602,0.00015375018,8.761883e-06,0.8806875,0.1358186,0.00034937263,0.00013843179,0.00029569864
4.6789646e-05,0.00044453144,0.0017870665,0.0032434464,2.5451183e-05,0.9970881,0.0028258562,1.1593103e-05,0.0010683835,0.00017663836
0.99533266,0.0,9.030104e-06,1.49309635e-05,0.0,0.00029292703,0.00014591217,0.00035387278,4.1395426e-05,0.00018897653
7.3343515e-05,0.0,6.0498714e-05,0.0001501739,5.066395e-07,5.364418e-07,0.00014957786,7.3730946e-05,0.99916065,2.682209e-07
0.0016903281,0.0,1.1026859e-05,4.7385693e-06,0.0,1.6093254e-06,0.00022372603,2.0861626e-05,0.9892776,1.680851e-05
0.008106858,0.0,0.0001514554,2.041459e-05,3.8146973e-06,4.61936e-06,0.00016579032,0.003508836,0.9760134,0.00032913685
0.12122595,7.748604e-07,9.834766e-06,6.943941e-06,0.0,3.129244e-05,0.001311034,0.000108510256,0.88667554,0.0026018918
0.0029660165,8.940697e-08,5.567074e-05,0.0009550452,1.5497208e-06,3.516674e-06,0.00080898404,2.8908253e-05,0.9917091,4.389882e-05
0.00020110607,0.71175563,0.013826102,2.503395e-06,0.00021415949,0.00016608834,0.014722675,4.3213367e-06,0.005157441,0.21757811
2.6494265e-05,9.208918e-06,0.0018540025,0.99962354,0.0010005236,4.1276217e-05,0.001185894,0.0,0.06062922,1.7553568e-05
0.9963145,0.0,3.5762787e-06,4.5269728e-05,0.0,0.00020381808,0.00017875433,3.170967e-05,7.596612e-05,0.000114291906
0.00084862113,0.0,0.0003684163,0.0004967153,4.4107437e-05,8.85129e-06,0.00052559376,0.00069049,0.9939008,1.3530254e-05
0.33754182,0.0,2.5093555e-05,1.3530254e-05,0.0,3.33786e-06,0.0005980134,0.00077810884,0.8628931,4.7385693e-06
0.00014185905,0.13095236,0.021140844,0.0025804937,6.642938e-05,0.042291373,0.314349,2.5421381e-05,0.965291,0.00067457557
0.00912711,0.013556927,0.010824919,0.00010249019,2.18153e-05,0.004757613,0.7174789,0.00092729926,0.00018793344,0.006324619
0.6607708,0.00016912818,3.170967e-05,1.013279e-06,0.00017875433,1.8537045e-05,0.00053730607,8.493662e-06,0.002072066,0.4587838
0.99876225,0.0,5.9604645e-08,7.1823597e-06,0.0,9.8109245e-05,0.00018274784,4.6789646e-06,2.0563602e-06,4.7922134e-05
0.93944806,1.1920929e-07,0.00011846423,1.9878149e-05,1.66893e-06,0.00033956766,0.00026631355,0.0069858134,0.0014552772,0.009945691
0.9927629,0.0,1.5795231e-06,3.3080578e-06,0.0,0.00010988116,0.00011661649,0.00013405085,3.9041042e-05,0.0008779764
1.2308359e-05,0.8547611,0.11977652,1.013279e-06,6.467104e-06,0.0007543862,0.02132544,1.013279e-06,0.0012957454,0.00850454
0.007920772,3.322959e-05,0.002124101,6.5118074e-05,5.2452087e-06,3.5464764e-05,0.002755016,6.2316656e-05,0.96103406,0.0002129972
0.0010170937,0.63285965,0.099402875,0.008796155,0.0022147298,0.0010908246,0.0010960102,4.708767e-06,0.059363097,0.37763342
0.98850405,8.940697e-08,4.2021275e-06,3.749132e-05,2.0861626e-07,0.00020563602,0.00033023953,1.6570091e-05,0.00050985813,0.0005018413
0.98740345,8.940697e-08,1.7881393e-06,1.4811754e-05,4.172325e-07,0.00011456013,0.0003965795,1.4126301e-05,0.0003452301,0.0017000437
0.00021475554,0.024857104,0.10344154,0.99659866,0.5487406,0.005725771,0.0046091974,0.0,0.0046547055,4.5776367e-05
8.106232e-06,0.9891536,0.013585985,2.3841858e-07,6.5267086e-06,0.001606226,0.0013095438,5.9604645e-08,0.10016593,0.004480481
0.0012661517,2.9802322e-08,3.97861e-05,9.992719e-05,9.179115e-06,7.95722e-06,0.00058427453,8.529425e-05,0.99025774,0.00023162365
0.9700824,1.847744e-06,2.9802322e-07,3.9041042e-06,1.7881393e-07,1.975894e-05,0.0020896494,1.66893e-06,0.00048846006,0.008135498
0.00029152632,2.9802322e-07,0.00014659762,0.0006400347,8.940697e-06,8.761883e-06,0.0009467304,2.9623508e-05,0.9906124,0.00035071373
5.1409006e-05,0.0,0.0013180077,0.00045362115,0.11257395,1.4990568e-05,0.0025366545,0.00048550963,0.9957342,3.7252903e-06
0.9930525,2.9802322e-08,3.0696392e-06,6.1690807e-06,0.0,0.0002245903,0.00018757582,8.416176e-05,3.170967e-05,0.00096696615
3.3080578e-05,0.0007262826,0.0021196604,0.0012369156,0.00018209219,0.9728534,0.048936576,8.562207e-05,0.7995649,0.00020378828
7.897615e-06,0.8404419,0.22516692,0.036714673,0.0013289452,0.9874754,0.01802054,2.3573637e-05,0.7457466,0.0007737875
0.00029480457,0.0011098087,1.8060207e-05,0.99228644,0.00017535686,0.0030623674,0.036640376,3.2782555e-07,0.017691016,0.016349912
0.995016,0.0,1.6093254e-06,1.7374754e-05,0.0,0.00020983815,0.00017127395,5.221367e-05,2.759695e-05,0.0004311204
0.655975,2.771616e-06,0.00020721555,3.1292439e-06,3.182888e-05,0.00088122487,0.0016617179,0.03120026,0.00013843179,0.24907571
0.03585753,0.009301782,0.7609207,3.6656857e-06,7.709861e-05,7.5250864e-05,0.00010213256,0.000166744,0.023646533,0.0075541437
0.8579705,0.0,2.4616718e-05,3.4868717e-06,1.2516975e-06,0.00048029423,0.000313282,0.15857026,8.293986e-05,0.008638144
0.9957984,0.0,8.6426735e-07,2.4706125e-05,0.0,0.00017166138,0.00020685792,1.7613173e-05,2.8759241e-05,0.00043949485
0.000742048,0.2578618,0.0039840043,0.98334825,0.012978822,0.0012101233,0.9089174,2.002716e-05,0.35199296,0.027155727
0.9952205,8.940697e-08,6.854534e-07,6.198883e-06,0.0,4.6789646e-05,0.00025084615,4.053116e-06,4.61936e-05,0.0011565089
0.029875934,2.4467707e-05,0.00026857853,2.026558e-06,3.0100346e-06,2.2917986e-05,0.00072306395,7.1287155e-05,0.84516406,0.0047229826
0.0011562705,0.000739187,6.4074993e-06,0.0003812909,1.2516975e-06,0.00012937188,0.9116862,5.1766634e-05,0.25045493,0.002591461
3.361702e-05,0.0,7.0244074e-05,0.99849916,0.00012269616,6.443262e-05,0.0014559329,6.2584877e-06,0.00017017126,0.00014150143
0.9971317,0.0,2.9802322e-07,7.0631504e-06,2.9802322e-08,0.00013834238,0.00029358268,5.066395e-06,5.930662e-06,0.0002809167
0.9984889,0.0,8.940697e-08,1.8060207e-05,0.0,6.198883e-05,0.00032684207,1.3709068e-06,5.185604e-06,9.4383955e-05
0.00028133392,0.00060641766,0.0025598407,0.010933399,0.00024855137,0.990299,0.010746151,5.4061413e-05,0.0009840727,0.0006443262
0.00046297908,0.0,0.0014843643,1.5825033e-05,6.6161156e-06,2.3454428e-05,0.0006955564,0.13550276,0.9816936,0.0002398789
6.464124e-05,4.976988e-06,1.7851591e-05,0.0027448237,1.2725592e-05,8.177757e-05,0.7093559,0.00013878942,0.9881973,0.000816524
0.0001488626,0.0,4.0233135e-06,6.377697e-06,0.0,0.0,0.00013455749,4.529953e-06,0.9990964,8.940697e-08
2.2530556e-05,0.14183885,0.8269273,0.00014150143,0.0013947785,0.0004478693,0.0031547248,3.784895e-06,0.30303806,0.00038328767
0.9973057,0.0,1.1920929e-07,5.2154064e-06,0.0,1.9699335e-05,0.00018897653,2.7120113e-06,1.7434359e-05,0.00023365021
3.516674e-05,8.493662e-06,5.632639e-06,0.0,5.543232e-06,1.4901161e-07,1.4901161e-07,1.7881393e-07,0.00020611286,0.9990266
0.014486134,5.364418e-07,9.62615e-06,5.9604645e-08,0.99737406,4.2647123e-05,0.021656781,4.9471855e-06,6.1929226e-05,0.0022524
0.96415925,2.115965e-06,8.6426735e-07,6.556511e-06,1.5497208e-06,3.194809e-05,0.0008819103,2.8312206e-06,0.0007124245,0.01818639
0.30227777,3.8653612e-05,2.5361776e-05,1.4603138e-06,0.00048187375,0.0002271533,0.007191658,0.00023272634,0.0010892451,0.22197506
0.9970804,0.0,6.854534e-07,4.169345e-05,0.0,0.00013166666,0.00020995736,9.089708e-06,8.112192e-05,9.6172094e-05
0.000116080046,7.748604e-07,1.2516975e-06,0.0,2.3007393e-05,1.4901161e-07,1.1920929e-07,2.0861626e-07,0.0002693534,0.9985777
0.017011434,2.9802322e-08,2.399087e-05,6.7055225e-06,7.4505806e-07,2.3961067e-05,0.0014133751,0.007416457,0.9379612,0.0028319955
0.3906183,0.0001566112,5.3346157e-06,0.00042694807,6.657839e-05,5.51641e-05,0.0055214465,9.62615e-06,0.28721008,0.12397221
0.99798644,0.0,2.0861626e-07,3.2812357e-05,0.0,7.2062016e-05,0.00030729175,1.4007092e-06,2.2441149e-05,0.00011923909
2.7537346e-05,3.7282705e-05,6.4074993e-06,3.20673e-05,6.2584877e-07,0.00076663494,0.9930587,3.963709e-06,0.0003002882,7.298589e-05
0.00017762184,5.981326e-05,0.0011684,0.00081434846,1.180172e-05,0.9966936,0.0042981803,0.000117480755,0.0024313629,0.0005584359
0.01105395,8.940697e-08,9.852648e-05,0.9843187,6.943941e-06,0.000169456,0.00047644973,1.66893e-06,1.6480684e-05,1.4036894e-05
0.9911989,0.0,5.662441e-07,3.1888485e-06,2.8014183e-06,0.00029161572,0.0003890097,2.3186207e-05,1.3530254e-05,0.001088798
0.00011584163,4.7683716e-07,4.172325e-07,0.9987001,2.592802e-06,0.00075638294,0.0030337572,1.7881393e-07,0.00021454692,0.0008957088
1.7374754e-05,0.9537264,0.0029722154,0.9952023,6.6280365e-05,0.0012678206,0.008426756,0.0,0.0958814,0.0011798441
0.9959051,0.0,1.013279e-06,6.377697e-06,0.0,0.00011575222,0.0001489222,4.4375658e-05,1.5765429e-05,0.00060260296
0.00038293004,3.0368567e-05,0.0008045137,0.013397932,0.72896945,0.9317088,0.20661715,8.046627e-06,0.0003568828,0.00023189187
0.00046092272,0.0,2.2351742e-06,0.99885917,1.1920929e-06,5.5998564e-05,0.00077325106,3.2782555e-07,1.719594e-05,6.3955784e-05
0.0004541874,0.0,5.1289797e-05,1.7136335e-05,5.9604645e-08,5.364418e-07,9.736419e-05,0.0018182993,0.99667996,6.854534e-07
4.1127205e-06,0.0,5.9604645e-08,0.99835944,1.0222197e-05,2.9802322e-05,0.002664566,2.9802322e-07,0.03043425,7.349253e-05
0.00044423342,2.9981136e-05,5.543232e-06,5.9604645e-08,7.095933e-05,5.9604645e-07,4.23193e-06,1.66893e-06,0.0033885539,0.9946867
0.0009844899,0.0,2.0861626e-07,0.9988519,1.9073486e-06,0.00012776256,0.0029416084,4.172325e-07,4.6789646e-06,8.183718e-05
0.070596784,3.3408403e-05,1.04904175e-05,9.1820955e-05,2.0861626e-07,0.0002720058,0.55291116,0.00013151765,0.6341227,0.0011304617
0.99520975,0.0,2.0861626e-07,1.1920929e-06,0.0,8.3357096e-05,0.00025478005,9.387732e-06,6.914139e-06,0.00072327256
0.99900424,0.0,2.9802322e-08,6.467104e-06,0.0,6.714463e-05,0.00022187829,1.8179417e-06,9.834766e-07,4.7773123e-05
0.7378931,1.7881393e-07,0.000109523535,3.84748e-05,1.5199184e-06,0.0003232062,0.00043827295,0.039107412,0.003744632,0.085418165
0.018605828,0.0009995997,0.001631707,0.0005887151,8.046627e-07,0.010715544,0.8509278,0.109981775,0.00037041306,0.0031894147
1.6093254e-06,4.6789646e-06,8.6426735e-06,0.99707377,0.00032374263,0.00022095442,0.02015382,1.7881393e-07,0.71738374,8.624792e-05
0.0071736574,0.0438129,0.003843069,0.0003219843,0.00044184923,0.29228944,0.02906251,0.0012879372,0.47189757,0.048442066
0.02344501,6.556511e-07,9.036064e-05,8.299947e-05,0.00030484796,1.1086464e-05,0.0010558963,0.0006942451,0.9032094,0.012754798
1.2665987e-05,0.3131159,0.2289905,0.026331604,0.013382167,0.0051681697,0.05753523,1.12354755e-05,0.94088304,0.0015824735
0.3724724,0.0,2.1338463e-05,6.3180923e-06,1.7881393e-07,7.742643e-05,9.649992e-05,0.7931686,6.8843365e-05,0.0004885495
0.002964884,9.894371e-06,0.00023722649,0.00045758486,3.0606985e-05,1.8626451e-05,0.001149565,4.014373e-05,0.9782021,0.0012686551
0.9933314,8.940697e-08,9.536743e-06,2.425909e-05,0.0,0.00029870868,0.00020328164,0.000110536814,5.0395727e-05,0.0011334717
0.973943,1.7881393e-07,1.1920929e-07,3.260374e-05,0.0,1.9341707e-05,0.00073063374,1.1920929e-06,0.0036176145,0.0010224581
0.031338394,0.00022408366,0.98796284,0.00040107965,1.3113022e-06,0.00023192167,7.221103e-05,0.00018838048,0.011281699,7.221103e-05
0.9929365,1.1920929e-07,3.7550926e-06,1.3232231e-05,5.9604645e-08,0.00035318732,0.00020349026,6.490946e-05,3.4570694e-05,0.0008648038
0.00071793795,0.0,0.00058463216,7.3730946e-05,4.3213367e-06,2.4706125e-05,0.0005811155,0.0026262999,0.9906148,0.000119805336
0.6791251,0.0,1.8775463e-06,1.0609627e-05,5.9604645e-08,1.2218952e-05,0.001801312,1.2069941e-05,0.42817765,0.00013673306
0.9953685,8.940697e-08,6.765127e-06,0.00011372566,4.172325e-07,0.00037527084,0.00040224195,2.30968e-05,5.3793192e-05,0.00036910176
0.04262191,4.324317e-05,2.2053719e-05,0.0003286004,1.3291836e-05,4.646182e-05,0.0014929175,2.926588e-05,0.80769724,0.0514293
0.049675137,1.1920929e-07,2.8908253e-05,2.2172928e-05,3.1113625e-05,8.404255e-06,0.0011098981,0.0003170669,0.9227079,0.001803577
0.0017853379,0.00015464425,0.9804012,0.036488652,8.445978e-05,0.00024336576,0.0028609633,0.0038264692,0.026510596,0.0007788837
0.0065889955,0.0,7.742643e-05,0.0012728572,0.036281526,8.478761e-05,0.0053597987,0.0014820695,0.9730123,7.18832e-05
0.0040759444,3.4570694e-06,0.00011521578,2.8312206e-06,0.9759723,4.10676e-05,0.04185173,0.000374794,0.0020439625,0.03373021
0.02238521,2.9802322e-08,2.9802322e-07,2.6285648e-05,2.9802322e-08,5.096197e-06,0.0006341636,1.9669533e-06,0.9383553,0.0003156364
0.0010389984,0.0,7.0929527e-06,1.6719103e-05,1.1920929e-07,2.7120113e-06,0.0001962483,3.2126904e-05,0.99227506,7.095933e-05
0.9968064,0.0,8.940697e-08,4.23193e-06,0.0,2.270937e-05,0.0003182888,6.2584877e-07,8.255243e-06,0.00052160025
0.004368305,8.940697e-08,6.905198e-05,5.0783157e-05,2.3961067e-05,4.4703484e-06,0.00077819824,0.0002501905,0.9790656,0.00044116378
1.347065e-05,0.0054130256,0.01693526,0.00026363134,0.00018420815,0.9835749,0.034406394,0.00023803115,0.9234843,0.00012508035
0.723257,0.0,2.7865171e-05,1.1622906e-06,0.0,2.1606684e-05,0.0030169785,0.001248002,0.83809793,0.000605464
0.9789089,0.0,3.2782555e-07,1.2397766e-05,0.0,2.9206276e-05,0.0002760291,5.1259995e-06,0.0027430058,0.00063344836
0.98201835,8.940697e-08,7.748604e-07,2.3961067e-05,9.23872e-07,7.584691e-05,0.00063303113,6.67572e-06,0.0005093813,0.0022825599
0.00018596649,0.0,1.40070915e-05,7.5012445e-05,2.682209e-07,1.4901161e-06,0.0002284348,1.4811754e-05,0.99769545,1.0341406e-05
0.0029575229,0.00020965934,0.98841524,0.00056293607,1.4871359e-05,0.00016340613,5.298853e-05,5.030632e-05,0.0036507845,0.00018751621
0.99760544,0.0,2.0861626e-07,2.5093555e-05,0.0,7.355213e-05,0.00041604042,2.592802e-06,1.5377998e-05,0.00021013618
0.98936105,0.0,1.013279e-06,4.4107437e-06,1.2218952e-06,7.587671e-05,0.0003759265,5.3346157e-06,0.0002462268,0.000515759
0.9752134,0.0,1.5586615e-05,2.4735928e-06,1.7881393e-07,0.0003235042,7.95424e-05,0.0041838586,2.720952e-05,0.0016459227
4.440546e-06,0.810349,0.2873417,0.018489271,0.0019708872,0.7662103,0.018543452,1.2278557e-05,0.92539424,0.0006724596
0.9819726,2.9802322e-08,2.1994114e-05,2.4706125e-05,2.682209e-07,0.00026983023,0.00013789535,0.0004931092,0.0005094409,0.0010055602
9.8228455e-05,0.96236664,0.0022811592,0.00060912967,5.364418e-07,0.0011081398,0.008088976,2.9802322e-07,0.925486,0.0055229664
0.000610888,0.9706037,0.050938636,1.758337e-06,0.00023907423,0.0013019145,0.0017791986,5.6922436e-06,0.22777754,0.035205275
0.8813367,5.662441e-07,2.3245811e-06,0.0001091063,8.940697e-08,2.6583672e-05,0.0017670989,2.503395e-06,0.22239777,0.0005827546
2.4706125e-05,1.3709068e-06,0.000114023685,0.9990727,0.019444644,0.00019738078,0.0014218092,5.662441e-07,0.0008074641,0.00010159612
0.9923847,0.0,2.9325485e-05,7.799268e-05,0.0,0.00027883053,0.00021106005,0.00013023615,0.00036153197,0.0001771748
0.0020549893,0.0,1.2725592e-05,7.867813e-06,0.0,4.0233135e-06,0.00043421984,4.976988e-05,0.98909277,8.493662e-06
0.003482908,0.0031590164,6.106496e-05,0.00012332201,8.940697e-08,0.0023130476,0.96236885,3.8444996e-06,0.02326098,8.749962e-05
9.697676e-05,5.9604645e-08,1.4901161e-07,0.9995439,2.5331974e-06,0.00026902556,0.0038383007,5.9604645e-08,2.3037195e-05,5.7190657e-05
2.1755695e-05,0.00039952993,6.7830086e-05,2.3841858e-07,1.9669533e-06,0.0003529191,0.976094,3.734231e-05,0.00014606118,0.0009210706
0.97271025,8.940697e-08,2.1785498e-05,1.2665987e-05,2.9802322e-08,0.00015056133,0.00013574958,0.0007353127,0.003066957,0.0034614205
0.9894053,0.0,0.00014597178,1.8417835e-05,2.9802322e-08,0.00041636825,0.00016143918,0.002829194,0.00010380149,0.0009461045
6.556511e-06,3.5107136e-05,0.013971865,0.0092865825,0.001776576,0.98165345,0.009266973,0.00038793683,0.013013452,0.0064415038
0.00040605664,0.0,2.3841858e-05,1.7851591e-05,5.9604645e-07,2.3245811e-06,0.0001500547,3.8921833e-05,0.99472964,3.9815903e-05
4.735589e-05,0.63959485,0.019083023,0.77625644,0.0001308024,0.003118366,0.020800292,4.7683716e-07,0.967941,0.0025779903
0.32905543,1.5497208e-06,8.910894e-06,2.8640032e-05,3.5852194e-05,1.2129545e-05,0.00245741,0.00013399124,0.63718987,0.040538162
1.9609928e-05,0.6718853,0.0009188652,0.00031349063,1.3709068e-06,0.0008891225,0.3278898,1.013279e-06,0.90340376,0.0017750859
0.99115676,8.940697e-08,7.390976e-06,9.357929e-06,2.682209e-07,0.00024867058,0.0001911521,9.712577e-05,3.0606985e-05,0.0021135807
0.98888344,0.0,5.6922436e-06,6.3180923e-06,2.9802322e-08,0.00030112267,0.00013306737,0.0011209548,3.5643578e-05,0.0013924837
7.1942806e-05,0.0,1.7881393e-07,0.999226,1.1205673e-05,0.0008122325,0.0027177334,2.9802322e-08,2.3782253e-05,0.00013643503
0.99722093,0.0,8.940697e-08,4.351139e-06,0.0,5.2005053e-05,0.00028523803,3.0696392e-06,4.1127205e-06,0.00025448203
0.022224665,0.0025263429,1.1861324e-05,5.096197e-06,9.7543e-05,1.23381615e-05,0.00065252185,1.2069941e-05,0.4202872,0.7164423
0.029595584,0.0,0.00013029575,1.642108e-05,1.14142895e-05,7.933378e-05,0.0011924803,0.96410155,0.0010079443,0.004491985
0.00015351176,0.0,1.9401312e-05,0.0005797744,1.847744e-06,1.7285347e-06,0.0002142191,7.95722e-06,0.9965941,1.5676022e-05
4.324317e-05,0.0,2.9802322e-08,0.9993511,1.8179417e-06,3.710389e-05,0.0009521246,8.940697e-08,5.2839518e-05,1.5705824e-05
8.9377165e-05,0.805165,0.08267307,8.428097e-05,0.78972465,0.0015392303,0.0141121745,1.1920929e-07,0.0107578635,0.030809343
0.00015926361,3.993511e-06,6.28829e-06,8.940697e-08,1.0192394e-05,6.2584877e-07,6.854534e-07,1.1622906e-06,0.00037148595,0.99736214
0.00032830238,2.9802322e-08,1.0728836e-06,0.9976859,6.279349e-05,0.00033184886,0.0024686456,4.172325e-07,3.7550926e-05,0.0002321899
1.8298626e-05,0.0,3.2782555e-07,0.9995656,5.364418e-07,4.3213367e-05,0.00027441978,0.0,0.00028529763,2.5004148e-05
0.0010403395,0.0,6.2584877e-06,0.00012281537,5.9604645e-08,5.364418e-07,0.00020062923,2.5421381e-05,0.9962114,2.771616e-06
0.98306435,8.940697e-08,4.5597553e-06,1.2755394e-05,5.9604645e-08,8.6933374e-05,0.00022548437,6.726384e-05,0.001986742,0.0017596185
0.997742,0.0,8.940697e-08,1.6987324e-06,0.0,8.2165e-05,0.0001154542,1.4305115e-05,1.0728836e-06,0.00014051795
0.00095677376,0.0020272732,0.00088623166,0.001019299,8.225441e-06,0.0042815506,0.9501668,0.01357007,0.00031593442,0.009090185
0.08374652,1.1920929e-07,1.4007092e-06,0.00018271804,1.4901161e-07,8.881092e-06,0.0029335022,5.6028366e-06,0.9442359,0.0003322065
0.99269664,8.940697e-08,5.9604645e-08,2.2649765e-06,3.5762787e-07,5.197525e-05,0.0005298257,1.6987324e-06,1.8507242e-05,0.0020912588
0.99649274,2.9802322e-08,1.013279e-06,1.0251999e-05,0.0,0.00020676851,0.00021630526,1.0222197e-05,8.791685e-06,0.00050091743
0.0010441244,0.0,6.0409307e-05,0.00010180473,3.0100346e-06,2.8669834e-05,0.00096943974,0.9908813,0.00031208992,0.0015533566
0.9923829,2.9802322e-08,1.3411045e-06,1.3619661e-05,0.0,6.848574e-05,0.0002770126,1.9311905e-05,0.000116080046,0.0011361837
0.00881505,0.0,9.655952e-06,1.4156103e-05,2.0861626e-07,4.798174e-06,0.00011906028,0.9884783,0.00040867925,9.7960234e-05
2.193451e-05,0.0010634065,0.7866585,0.00050854683,0.00014263391,0.0001296699,0.00057706237,1.8954277e-05,0.95101273,2.3186207e-05
0.0011811256,4.130602e-05,0.9927547,0.0057112873,0.00014361739,0.00010535121,0.00032418966,0.00078833103,0.1693672,4.595518e-05
0.99427015,2.682209e-07,1.0043383e-05,1.4513731e-05,5.9604645e-08,0.0003119409,0.00024691224,1.6570091e-05,2.2262335e-05,0.001229316
4.053116e-06,0.00038155913,0.010511488,0.00029248,4.4107437e-06,0.99716294,0.0015057027,2.9325485e-05,0.0020639002,0.00070255995
0.9417364,1.6391277e-06,0.00011354685,2.026558e-06,1.50203705e-05,0.00047305226,0.00021123886,0.0007634759,0.00012499094,0.06632006
0.99536324,0.0,4.172325e-07,1.013279e-05,5.9604645e-08,0.0001283586,0.00017470121,2.3424625e-05,1.4364719e-05,0.0004672706
0.004273087,0.0017357469,0.85801244,0.016970754,0.0009367764,0.00032615662,0.0015391409,0.00034323335,0.2632091,0.0010768771
0.001337856,5.096197e-06,0.9871986,0.29370397,0.0002155006,9.3489885e-05,0.0024919212,0.06789577,0.002090931,0.00053718686
0.00039619207,0.17540488,0.0001244843,0.9974111,0.0017783046,0.0013574064,0.97941893,1.758337e-06,0.013806999,0.0055914223
3.33488e-05,0.00033208728,0.0016599298,0.9992877,0.0020876527,0.00051251054,0.0031681955,5.9604645e-08,0.059631914,0.00016516447
0.0070489347,0.002359867,4.428625e-05,3.2782555e-07,0.0011244118,5.2452087e-06,6.878376e-05,6.556511e-06,0.015495092,0.9727528
0.00010254979,0.0017477572,0.19410613,0.9906535,0.0004464686,0.00026240945,0.0010988712,8.940697e-08,0.0004221201,0.00021407008
0.99615157,0.0,1.2814999e-06,2.5182962e-05,2.9802322e-08,0.00021255016,0.00020587444,1.6361475e-05,1.296401e-05,0.0003928244
0.0615232,1.4901161e-06,1.001358e-05,1.2814999e-06,0.9558864,2.8073788e-05,0.008297861,3.5077333e-05,0.006507486,0.006600827
6.377697e-06,0.9854374,0.0069567263,0.0007007718,2.682209e-07,0.0016370416,0.005706072,0.0,0.9562439,0.00030177832
0.00018432736,0.0,2.348423e-05,1.4513731e-05,2.9802322e-07,1.3113022e-06,0.00014421344,1.9013882e-05,0.9965148,1.2487173e-05
0.9876356,0.0,6.020069e-06,3.2186508e-06,5.9604645e-08,0.00039684772,0.00014212728,0.0017451644,1.4662743e-05,0.0017123222
0.99443746,1.1920929e-07,5.9604645e-08,1.1175871e-05,2.9802322e-08,2.6762486e-05,0.0006798208,7.748604e-07,0.00015985966,0.00044360757
9.924173e-06,0.0028163195,0.0013687611,0.9973294,0.00032541156,0.0002438724,0.004562199,0.0,0.77830744,6.583333e-05
0.8884767,6.7055225e-06,4.8190355e-05,9.1940165e-05,8.34465e-07,6.9350004e-05,0.0016886592,0.000109136105,0.20528421,0.006910473
0.0016304255,7.605553e-05,0.9919653,0.2465344,4.258752e-05,6.41644e-05,3.1143427e-05,8.672476e-06,0.001420021,3.4689903e-05
0.0010230839,0.007343054,0.9544245,0.00076037645,0.00014442205,5.301833e-05,3.2812357e-05,6.8843365e-06,0.115623504,0.00020048022
0.97329235,5.662441e-07,5.7816505e-06,0.00021716952,5.364418e-07,0.00014150143,0.00052690506,2.0325184e-05,0.0051810145,0.0024229884
0.0060967207,0.0,0.0005853474,0.00010254979,1.937151e-05,4.887581e-06,0.0005014539,0.0002706051,0.98804563,1.707673e-05
0.23780176,0.0011233091,0.54830897,0.0001232624,3.5464764e-06,0.0006415546,0.00032007694,2.8312206e-05,0.00091582537,0.0005594492
0.0003516078,0.92236626,0.0117640495,0.00053450465,0.0003234148,0.00054588914,0.0034986138,8.940697e-08,0.09630978,0.04291457
0.99336797,1.7881393e-07,1.6391277e-06,6.556511e-06,2.9802322e-08,5.802512e-05,0.00022542477,3.784895e-06,9.196997e-05,0.0016183257
0.9976557,0.0,8.046627e-07,1.6450882e-05,0.0,9.23872e-05,0.00019225478,5.722046e-06,2.56598e-05,0.00015598536
0.07761234,0.000153929,0.9438627,0.0017988682,1.5497208e-05,0.00038087368,0.0005451143,0.0072589517,0.3258747,0.00010243058
3.784895e-06,1.3589859e-05,1.3202429e-05,0.9994084,0.00053194165,0.00036731362,0.0064943135,1.1920929e-07,0.20712274,0.00013661385
0.19773418,1.7881393e-07,1.6093254e-06,3.0100346e-06,1.4901161e-07,1.0222197e-05,0.0006709695,1.7255545e-05,0.7259457,0.0022027493
0.903352,1.1920929e-07,1.9520521e-05,5.3703785e-05,8.940697e-08,4.711747e-05,0.0015308261,0.0008726716,0.1965968,0.0023971796
0.00026026368,0.9701915,0.008232951,0.0052786767,1.770258e-05,0.001661092,0.00046345592,8.940697e-08,0.3211987,0.06169361
5.415082e-05,2.3841858e-07,1.4901161e-06,0.9997716,2.4855137e-05,0.00020483136,0.0038924515,8.940697e-08,7.557869e-05,4.6759844e-05
0.9962255,0.0,1.2516975e-06,9.208918e-06,0.0,0.00021767616,0.0001488328,2.6136637e-05,1.0371208e-05,0.000379771
0.99741626,0.0,8.940697e-08,2.2649765e-06,0.0,7.05719e-05,0.00017133355,4.887581e-06,3.0696392e-06,0.0002693534
0.9981696,0.0,1.7881393e-07,6.556511e-06,0.0,9.381771e-05,0.00017952919,5.00679e-06,3.2484531e-06,0.000119924545
0.013726711,1.13248825e-05,3.5762787e-06,4.172325e-07,1.8119812e-05,5.6922436e-06,0.00016668439,3.9219856e-05,0.017959148,0.9405117
7.838011e-06,0.9384856,0.03213942,0.0020192862,8.34465e-07,0.0016728938,0.0075500607,1.4901161e-07,0.9742187,0.000106692314
1.32620335e-05,0.0031493604,0.015346944,0.00041216612,9.867549e-05,0.9931365,0.049495876,0.00013694167,0.51907474,0.00023800135
0.99782276,0.0,0.0,1.6897917e-05,0.0,2.464652e-05,0.00031670928,6.2584877e-07,2.4348497e-05,7.969141e-05
0.0002539754,0.14079353,0.15005317,0.0007375777,0.0026597679,0.00554356,0.6511673,0.00056803226,0.0020405054,0.115906954
0.017865956,0.0006483197,0.00037246943,1.1920929e-07,0.003368795,1.1354685e-05,7.638335e-05,2.8043985e-05,0.0012901425,0.9559212
3.2782555e-06,9.23872e-07,0.016353518,5.9872866e-05,0.89160216,1.0818243e-05,0.0015890002,5.7071447e-05,0.98803693,2.6792288e-05
0.0011044443,1.8954277e-05,0.00045251846,5.3673983e-05,1.5795231e-06,0.9931246,0.0143429935,5.51939e-05,0.00017720461,4.1902065e-05
0.970402,4.1127205e-06,7.2717667e-06,0.00029438734,2.3841858e-07,0.00010454655,0.000939548,9.149313e-06,0.004920423,0.0068039
0.26285905,1.963973e-05,9.924173e-06,8.940697e-08,4.5716763e-05,1.1861324e-05,9.045005e-05,2.425909e-05,0.0009210408,0.8384316
0.000108361244,0.9715538,0.007551372,0.0026806295,1.874566e-05,0.001510948,0.0016209781,0.0,0.026374668,0.007850945
0.9978641,0.0,3.5762787e-07,1.3947487e-05,0.0,0.00024050474,0.00039467216,1.3947487e-05,3.5464764e-06,8.788705e-05
0.0025485456,7.4505806e-07,0.0010320544,0.00047779083,5.9604645e-05,7.659197e-06,0.0016774535,3.260374e-05,0.9895927,3.2305717e-05
0.00012788177,0.00052425265,0.0008741617,0.00483346,6.9737434e-05,0.00020772219,0.96950066,0.0010414422,0.1018942,0.0024018884
0.99755466,0.0,2.0861626e-07,6.556511e-06,0.0,8.907914e-05,0.00017860532,6.1392784e-06,4.5597553e-06,0.00017166138
4.1991472e-05,3.3944845e-05,0.00053593516,0.00022947788,9.834766e-07,0.9953573,0.006695211,7.778406e-06,0.013546288,0.00010967255
0.39061996,0.0005630851,0.9355171,6.815791e-05,1.1354685e-05,0.00045225024,0.0001423657,0.0030682087,0.0012298524,0.004997343
0.00014594197,0.0,0.0,0.99870586,1.1920929e-07,5.2928925e-05,0.0008814931,0.0,0.00056001544,1.3619661e-05
0.3119725,1.3113022e-05,0.0062987804,2.1129847e-05,0.00016778708,0.00033780932,0.00029999018,0.038267642,0.0016172826,0.5430968
0.32199574,0.0,8.34465e-07,4.0322542e-05,2.0861626e-07,7.0035458e-06,0.00092974305,1.7285347e-06,0.55846184,0.00017797947
0.00013688207,7.6681376e-05,4.3809414e-06,2.7120113e-06,3.8444996e-06,0.0005148649,0.8840851,5.9604645e-08,1.886487e-05,0.0001334846
0.00322631,0.0,5.2005053e-05,5.915761e-05,3.1888485e-06,1.5199184e-06,0.00066789985,3.5852194e-05,0.99251366,1.579523e-05
0.0003015101,0.75462383,0.0040652454,1.8954277e-05,4.5120716e-05,5.403161e-05,0.0003876388,8.940697e-08,0.013070732,0.37355357
0.99709165,0.0,1.66893e-06,6.780028e-05,5.9604645e-08,0.0002734363,0.00026124716,2.1129847e-05,1.79708e-05,0.00013002753
0.07251188,0.00035831332,1.1771917e-05,3.4868717e-05,4.172325e-07,3.3318996e-05,0.005319655,4.5001507e-06,0.8386662,0.011845708
0.99529535,0.0,1.1920929e-07,5.00679e-06,5.9604645e-08,7.82609e-05,0.00019872189,1.1265278e-05,2.5361776e-05,0.00036251545
0.3622354,0.00021135807,0.975119,4.3421984e-05,1.6391277e-06,0.00032880902,0.00010213256,0.002224356,0.0008906126,0.0010289848
0.99168456,0.0,2.3841858e-07,1.2636185e-05,6.9737434e-06,0.00012370944,0.0011331439,2.7120113e-06,7.3850155e-05,0.00068721175
0.9922874,0.0,4.9471855e-06,3.3080578e-06,8.940697e-08,0.0002567172,0.0001218915,0.00027012825,3.0398369e-05,0.0017279387
0.180666,7.390976e-05,1.6897917e-05,0.00018075109,0.00040271878,0.0015679896,0.5532787,0.003998995,2.4497509e-05,0.022717267
0.43264627,0.00053346157,0.8580105,3.3825636e-05,2.0980835e-05,0.00032287836,9.262562e-05,0.0014443994,0.00093612075,0.012990296
0.7731403,0.0,2.4020672e-05,6.854534e-07,2.0861626e-07,0.000109136105,6.9618225e-05,0.21705273,3.8444996e-05,0.004671991
2.95043e-06,6.905198e-05,0.0011928678,0.00055217743,7.998943e-05,0.97614104,0.0145222545,4.029274e-05,0.7588969,0.00015720725
4.3183565e-05,2.9802322e-07,3.2156706e-05,0.9993923,0.036136568,0.0009352863,0.0037000477,3.5762787e-07,9.7602606e-05,7.4118376e-05
0.007992446,8.940697e-08,4.4703484e-06,2.3394823e-05,4.172325e-07,4.7385693e-06,0.00064730644,6.0617924e-05,0.97756195,0.00056776404
0.9961426,0.0,1.4901161e-07,5.1259995e-06,0.0,1.8417835e-05,0.00022241473,9.834766e-07,1.692772e-05,0.00062543154
0.01833883,0.00022259355,0.9479768,0.03187886,0.0025412142,0.0002310574,5.6922436e-05,9.62615e-06,0.0009613335,0.0006053448
0.00013425946,0.19479725,0.15940371,0.9595386,0.0021638572,0.0040980577,0.41947177,6.765127e-06,0.0028923154,0.003463
0.9941385,2.9802322e-08,1.4901161e-07,3.4570694e-06,2.3841858e-07,5.7160854e-05,0.00038051605,2.1457672e-06,2.220273e-05,0.0011881888
0.0043206513,0.0040466487,0.0015034676,0.0020226836,1.3798475e-05,0.00043705106,0.005215943,0.0001462698,0.901639,0.045242786
1.1563301e-05,0.00015071034,9.596348e-06,8.940697e-07,1.6063452e-05,0.0005135536,0.97076595,1.1920929e-07,2.0593405e-05,0.00014141202
0.004741341,0.0011767745,0.9469416,0.0014325082,0.0009108186,0.0003296733,0.00017419457,0.00014334917,0.026931465,0.0021997392
0.0023703575,0.0,3.299117e-05,3.1471252e-05,3.2782555e-07,1.5795231e-06,0.00026717782,9.030104e-05,0.99251664,2.9802322e-06
5.465746e-05,0.68311954,0.018814534,0.002162546,0.002100736,0.05878845,0.11041072,5.662441e-07,0.013104051,0.0031639934
0.00037381053,1.4901161e-07,3.0577183e-05,0.99566793,0.0033046305,0.00018247962,0.002652049,7.4505806e-06,0.0049417913,5.015731e-05
7.8350306e-05,0.9587529,0.0048647523,0.9968701,0.00034958124,0.0021751225,0.029857397,0.0,0.04158169,0.0020523667
0.9512373,5.662441e-07,9.834766e-06,3.3915043e-05,5.9604645e-08,4.3213367e-05,0.0003567934,0.00021412969,0.034603566,0.008898348
7.510185e-05,5.3346157e-06,9.196997e-05,0.000114023685,7.0035458e-06,0.9924774,0.009889215,4.708767e-06,0.00018519163,2.95043e-05
0.98927516,5.9604645e-08,4.3809414e-06,9.62615e-06,2.0861626e-07,0.00018334389,0.00025218725,6.4879656e-05,0.00011512637,0.0022196472
0.0015448034,0.7101771,0.4101976,0.081879884,0.0026746392,0.982419,0.015303403,0.0013126135,0.09311631,0.016984612
0.025873244,1.4901161e-07,2.6524067e-06,9.179115e-06,0.0,9.447336e-06,0.00053697824,2.9802322e-05,0.9438925,0.0008096397
5.686283e-05,3.5762787e-07,9.5039606e-05,0.9974838,0.6883563,0.0010439456,0.0034028292,1.0371208e-05,9.3758106e-05,0.00020685792
0.0003875196,0.0,2.026558e-05,0.00017148256,2.3841858e-07,1.66893e-06,0.00020301342,1.1056662e-05,0.9955301,1.5735626e-05
0.99616104,0.0,1.4901161e-07,8.195639e-06,1.1920929e-07,7.995963e-05,0.00025454164,4.1127205e-06,1.2993813e-05,0.0006971657
1.79708e-05,2.682209e-07,1.8537045e-05,0.99930674,0.1429483,0.0003709793,0.0033002496,4.172325e-07,0.002645284,4.157424e-05
0.99080974,5.9604645e-08,4.7683716e-07,2.2411346e-05,2.9802322e-08,3.5256147e-05,0.0003144443,6.0498714e-06,0.0003950596,0.0014296472
5.376339e-05,8.106232e-06,7.122755e-06,0.0,1.385808e-05,1.4901161e-07,2.0861626e-07,2.9802322e-07,0.00016272068,0.99878657
6.175041e-05,0.0006766319,6.0796738e-06,0.98933715,3.6269426e-05,0.0010027289,0.9750774,1.2814999e-06,0.00019028783,0.003230691
9.894371e-06,6.312132e-05,0.010935664,0.0023587048,0.0077531636,0.9922694,0.034017503,6.1690807e-06,0.005754918,0.00018942356
0.99239254,1.7881393e-07,1.6987324e-06,2.2411346e-05,2.682209e-07,0.00037804246,0.00057038665,1.4513731e-05,1.9878149e-05,0.0018298626
4.2766333e-05,7.927418e-06,8.016825e-06,0.0,1.4036894e-05,1.4901161e-07,2.0861626e-07,2.682209e-07,0.00020599365,0.9986801
0.058475047,3.5762787e-07,6.428361e-05,8.583069e-05,3.9309263e-05,2.2828579e-05,0.0017053783,0.0005542934,0.9008839,0.0029072762
0.0009239316,2.9802322e-07,1.1473894e-05,0.00043159723,1.2814999e-06,1.4305115e-05,0.004157454,1.49309635e-05,0.99439496,0.00011321902
0.14114547,8.940697e-08,1.4483929e-05,8.761883e-06,5.8710575e-06,1.1861324e-05,0.00057798624,0.0010197163,0.82611936,0.006607741
0.00013130903,0.0018596351,2.4110079e-05,2.413988e-06,1.7136335e-05,0.0008094311,0.91630256,2.0861626e-07,5.155802e-06,0.00012722611
0.15544945,0.0,5.2273273e-05,1.8894672e-05,9.23872e-07,0.00016605854,0.0101083815,0.8427155,0.0010069311,0.0014266074
0.27334276,0.023827136,0.42238495,4.172325e-07,1.6570091e-05,2.8848648e-05,4.2438507e-05,3.8146973e-06,0.00029546022,0.0192464
0.0006747544,0.0,1.013279e-06,9.894371e-06,0.0,2.3841858e-07,0.00019958615,5.3942204e-06,0.9978616,1.1026859e-06
3.8146973e-06,0.9414358,0.024040222,1.6182661e-05,7.390976e-06,0.0010796785,0.015461355,2.9802322e-07,0.03515175,0.012190759
0.000556767,0.030476958,0.01066041,0.9974723,0.004778534,0.0018955767,0.045017242,1.1920929e-07,0.21216407,0.00061929226
0.00082853436,0.08223304,0.00023701787,6.854534e-07,9.250641e-05,4.7683716e-06,2.798438e-05,5.9604645e-08,0.003995031,0.8088445
0.15339899,0.0,3.4719706e-05,6.7055225e-06,8.940697e-08,4.9471855e-05,8.499622e-05,0.8514696,6.4611435e-05,0.00040131807
1.4901161e-06,7.3611736e-06,1.6123056e-05,0.99957144,0.0012079179,4.377961e-05,0.0070949495,0.0,0.36149558,4.2170286e-05
0.9746468,1.1920929e-07,6.1690807e-06,5.930662e-06,8.940697e-08,7.9125166e-05,0.00024554133,6.0766935e-05,0.0049476624,0.0017901361
0.9987674,0.0,1.7881393e-07,1.1026859e-05,0.0,8.010864e-05,0.00022107363,2.1457672e-06,3.516674e-06,5.733967e-05
0.9915458,8.940697e-08,6.2584877e-06,4.3988228e-05,2.9802322e-08,0.00015372038,0.00017777085,9.1701746e-05,0.00014802814,0.00132218
0.98398995,0.0,2.682209e-07,2.026558e-06,2.9802322e-07,8.1151724e-05,0.0003029704,2.5987625e-05,0.00021833181,0.0017286241
6.4969063e-06,0.0023790002,0.3580302,0.003001511,0.8788799,0.023058623,0.060525,0.00016462803,0.9380946,0.00017935038
0.00067704916,1.8179417e-06,8.574128e-05,6.1154366e-05,3.5762787e-07,0.9915979,0.0032007098,0.00027102232,0.0002720058,0.00017514825
0.9855151,2.682209e-07,2.0861626e-06,2.9921532e-05,8.6426735e-07,0.000109791756,0.0004760325,1.2010336e-05,0.00018301606,0.0045838654
0.85027623,7.4505806e-06,1.0609627e-05,1.9311905e-05,0.00019428134,8.1688166e-05,0.00095775723,4.0888786e-05,0.0012793839,0.17550278
0.9965528,0.0,8.046627e-07,2.9206276e-06,0.0,0.000107795,0.00015330315,1.6778708e-05,5.4240227e-06,0.00039228797
3.516674e-05,8.493662e-06,5.632639e-06,0.0,5.543232e-06,1.4901161e-07,1.4901161e-07,1.7881393e-07,0.00020611286,0.9990266
0.00038838387,0.0016753078,0.040442288,0.00050899386,0.00045618415,0.0006684661,0.043421805,0.00049355626,0.9804635,0.0002696514
0.0024832785,0.048729748,0.49486527,0.00027894974,0.0005090833,0.00010871887,0.0001243949,1.4007092e-06,0.0032317042,0.011656344
0.033206522,0.00024273992,0.0001488626,6.213784e-05,1.2069941e-05,0.00039836764,0.45283946,0.00040400028,0.7704868,0.0025539398
0.0010305047,4.6491623e-06,6.6280365e-05,0.0030376613,0.2549169,0.87745535,0.096494794,2.4735928e-06,0.00067198277,4.5090914e-05
0.045729488,8.165836e-06,2.0861626e-05,3.9041042e-06,0.0003041029,4.0590763e-05,0.0008199513,0.0041897893,0.0061166286,0.90445435
0.00019356608,0.0,0.0,0.9965956,4.4703484e-07,0.0004452467,0.0022910535,1.4901161e-07,0.00034332275,0.00025752187
2.5302172e-05,5.9604645e-07,0.5026461,0.0008265078,0.17937884,2.1725893e-05,0.0017280281,0.002648294,0.98457694,2.1725893e-05
0.99633825,0.0,0.0,2.3543835e-06,0.0,1.3321638e-05,0.0003568828,2.3841858e-07,1.04010105e-05,0.00035569072
0.5965876,1.2427568e-05,9.3758106e-05,7.0631504e-06,5.4240227e-06,0.00010576844,0.0011686981,0.010145545,0.1185689,0.26346982
0.9928551,8.940697e-08,1.4901161e-07,2.771616e-05,0.0,3.0726194e-05,0.00061914325,3.874302e-07,0.00063583255,0.00015869737
0.00051414967,8.940697e-08,2.2172928e-05,0.00027930737,5.364418e-07,3.874302e-06,0.0003248155,8.404255e-06,0.99473155,3.093481e-05
0.00054985285,0.8453559,0.012209266,0.069137365,0.00015899539,0.008092761,0.114207745,3.2484531e-06,0.9204978,0.0069558024
0.9917432,2.9802322e-07,4.7683716e-07,1.6540289e-05,0.0,6.765127e-05,0.00063055754,2.1457672e-06,4.696846e-05,0.0024524033
0.14463711,0.000269413,0.9427203,0.00081792474,3.1739473e-05,0.00092458725,0.00024455786,0.0025210083,0.006291151,0.0025728047
3.6597252e-05,0.0048599243,7.227063e-05,0.99629664,0.00023081899,0.001696974,0.88139343,6.2584877e-07,0.12469602,0.0014742911
0.9847363,0.0,1.0460615e-05,3.6358833e-06,0.0,0.00016564131,5.8412552e-05,0.0018877685,3.4362078e-05,0.0012778342
0.0049261153,0.00024741888,0.98714304,0.012355745,0.00016337633,0.0003837645,9.49502e-05,9.685755e-05,0.0070685446,0.0003710091
0.0020939112,0.017446488,0.0028328598,0.00035476685,5.6773424e-05,0.005870253,0.8621546,0.00010353327,0.008332193,0.0043803453
0.00016361475,1.731515e-05,2.026558e-06,1.4901161e-07,1.0699034e-05,2.3841858e-07,9.23872e-07,2.682209e-07,0.0045180917,0.9963177
0.99434733,8.940697e-08,1.1622906e-06,1.0997057e-05,8.940697e-08,0.0001296103,0.0003004372,8.493662e-06,2.9563904e-05,0.0012225211
0.0060679615,1.32620335e-05,6.145239e-05,0.0002362132,4.6491623e-06,0.97446203,0.0091713965,3.784895e-06,2.1904707e-05,2.6226044e-05
2.270937e-05,0.9715016,0.00033816695,0.98788345,3.0994415e-06,0.0024927855,0.012474775,0.0,0.53269476,0.0013282895
0.00021645427,6.1273575e-05,0.000808537,0.00015690923,5.5372715e-05,0.9471966,0.28455,5.942583e-05,0.012712717,0.00016501546
0.00057014823,0.0,0.1598635,0.00043410063,3.695488e-05,5.096197e-06,0.0005912185,0.96020365,0.014228791,0.0017616451
0.0014660656,2.3841858e-07,0.00025767088,5.6922436e-06,7.033348e-06,3.2395124e-05,0.00087574124,0.019912034,0.95444596,0.006013185
2.2053719e-05,0.9818291,0.0020923018,3.194809e-05,6.854534e-07,0.0004685223,0.0049070716,0.0,0.020246565,0.0030632317
4.261732e-05,0.002640307,0.90759945,0.9204126,0.01671961,0.00032651424,0.00031006336,4.261732e-06,0.7482734,6.145239e-05
0.0011410415,5.9604645e-08,0.00015684962,4.2319298e-05,1.1026859e-06,2.1755695e-05,0.0008620322,0.0033053458,0.9866178,0.0005480945
7.2687864e-05,0.00044429302,0.000467062,0.99563026,0.9232149,0.94760734,0.042012066,1.013279e-06,0.0004339218,0.00035122037
0.98531073,5.662441e-07,2.0176172e-05,2.732873e-05,0.0,0.00020307302,0.00076797605,3.3468008e-05,7.9482794e-05,0.003562659
0.99641526,0.0,9.23872e-07,6.1690807e-06,1.4901161e-07,0.00028198957,0.00022312999,9.685755e-06,6.467104e-06,0.00024321675
0.0002270937,0.006693214,0.1371927,0.0045396984,0.00022566319,0.9868368,0.023412138,0.00146994,0.005104959,0.001743406
0.029619902,0.0,4.4077635e-05,4.708767e-06,2.9802322e-08,7.2717667e-06,0.000117212534,0.97690535,5.608797e-05,4.968047e-05
6.854534e-07,3.9339066e-06,0.0006400347,1.9788742e-05,1.6093254e-06,0.9983264,0.0017619133,1.5467405e-05,0.059046894,9.0420246e-05
0.00050738454,1.3113022e-06,7.7188015e-06,0.00010558963,8.34465e-07,0.98953736,0.00604257,6.2584877e-07,9.715557e-05,6.377697e-06
5.751848e-06,7.7188015e-06,0.0018378198,3.5703182e-05,1.1920929e-06,0.9980205,0.0059108734,0.00012046099,0.021916687,0.00020104647
0.001060009,1.0669231e-05,4.3213367e-06,1.7881393e-07,4.4047832e-05,1.0728836e-06,8.136034e-06,1.1354685e-05,0.008446902,0.9897436
0.0010227561,8.1807375e-05,0.9846691,0.029584259,0.00011339784,0.0001167953,0.0006237626,0.0018621087,0.0038702786,0.0017479956
0.001372546,0.0,2.0861626e-07,0.99749064,9.447336e-06,0.0005148053,0.006100297,9.23872e-07,4.8577785e-06,0.00048717856
0.8497564,1.4305115e-06,1.2814999e-06,4.142523e-06,4.7892332e-05,3.0308962e-05,0.0016880631,4.440546e-06,0.013488531,0.016453266
0.997861,0.0,1.4901161e-07,6.4074993e-06,0.0,0.0001269877,0.00018164515,7.56979e-06,2.5629997e-06,0.00017338991
0.00890699,5.2452087e-06,0.00035098195,5.325675e-05,4.4703484e-07,0.9804742,0.008418113,0.00036671758,0.0013210177,0.00041633844
0.0054187477,0.0003579259,0.00036147237,3.0994415e-05,1.0728836e-06,0.002938956,0.89521635,0.0014714301,0.001370579,0.0022754073
0.02305007,0.48569256,0.4526971,0.00024706125,0.0001975298,0.02512467,0.0054216683,3.8176775e-05,0.013109595,0.019555211
0.031997472,1.937151e-06,7.8082085e-06,0.00027111173,8.34465e-07,0.9650745,0.009473443,7.778406e-06,1.898408e-05,2.8818846e-05
0.9855752,2.9802322e-08,5.364418e-07,2.3245811e-06,2.026558e-06,0.00013974309,0.0004976392,1.3202429e-05,0.00010493398,0.0018056631
0.13555577,0.0002989173,2.783537e-05,2.9802322e-08,0.00031802058,6.556511e-06,7.292628e-05,2.2947788e-06,0.0005750358,0.8973521
0.00016573071,0.00041258335,0.009222865,0.00012770295,0.00010818243,0.97371334,0.09116855,0.0004748404,0.17888004,0.00026282668
0.9562082,1.0728836e-06,0.00018414855,5.5462122e-05,1.1146069e-05,0.0022121966,0.0029134452,0.011281431,0.00048184395,0.0074317753
0.0003106892,1.3709068e-06,1.0877848e-05,0.00011718273,6.556511e-07,0.9899743,0.009028971,3.1292439e-06,0.0011661351,1.963973e-05
0.99656713,0.0,3.5762787e-07,6.2286854e-06,0.0,0.00021591783,0.0001886189,5.6266785e-05,1.3113022e-06,0.00025227666
0.45128995,2.8908253e-06,1.5199184e-06,0.00035077333,2.9802322e-07,3.2931566e-05,0.0026374757,6.735325e-06,0.5703388,0.007545501
0.00024914742,0.094819635,0.5869875,0.005413413,0.0026979744,0.6331988,0.002593249,2.3156404e-05,0.021018982,0.002179265
0.98522437,1.4901161e-07,1.5497208e-05,4.6521425e-05,2.0861626e-07,0.0002655089,0.00021353364,0.00022229552,0.0005904436,0.0022651553
0.0015920699,0.022566766,5.930662e-05,0.9932539,0.0011413991,0.0015196204,0.9135337,1.4603138e-06,0.00057828426,0.008993357
0.9974568,0.0,2.682209e-07,6.1690807e-06,0.0,9.211898e-05,0.00015825033,7.8082085e-06,6.7055225e-06,0.00020736456
4.0709972e-05,9.23872e-07,4.7683716e-07,0.9993533,1.4692545e-05,0.00095790625,0.0044492185,2.9802322e-08,0.00042933226,0.00033292174
0.98557436,8.940697e-08,8.940697e-08,2.7418137e-06,0.0,2.4050474e-05,0.00034603477,5.364418e-07,0.00040262938,0.00038006902
0.0040732324,4.5388937e-05,0.0007405877,7.671118e-05,5.1617622e-05,0.00053086877,0.0136111975,0.002878219,0.91819704,0.010230154
0.00025004148,0.005297333,0.02181229,0.00093495846,9.596348e-06,0.99557173,0.0078314245,5.799532e-05,0.011641175,0.00039160252
0.0001488328,1.6093254e-06,2.092123e-05,0.9964881,0.0009860694,0.00090166926,0.010906428,1.0609627e-05,0.00016999245,0.0033311546
0.98727024,2.9802322e-07,3.1888485e-06,0.00013118982,2.0861626e-07,0.00018623471,0.0006416142,2.2470951e-05,0.00034174323,0.0021868646
0.00024089217,0.0,6.645918e-06,8.314848e-05,0.0,8.34465e-07,8.022785e-05,8.761883e-06,0.9967447,5.00679e-06
0.1334196,1.591444e-05,0.97515976,0.0030602813,1.5616417e-05,0.001603961,0.00029325485,0.020035118,0.006824404,0.0005340874
0.0005181432,0.9289659,0.008986801,1.1533499e-05,4.2915344e-06,0.0004284978,0.00047186017,0.0,0.001729995,0.017989099
0.99476004,2.9802322e-08,1.3411045e-06,4.592538e-05,0.0,0.00016239285,0.00023064017,1.1056662e-05,7.7039e-05,0.00050479174
0.010063499,8.940697e-08,1.552701e-05,1.5497208e-06,8.940697e-08,2.592802e-06,0.0002039671,2.3633242e-05,0.95584446,0.00016763806
0.92906415,1.1920929e-07,2.3394823e-05,1.4454126e-05,6.3180923e-06,0.00016766787,0.00063338876,0.00052616,0.014728278,0.0040931106
6.145239e-05,0.9339714,0.20786002,0.7378393,0.024560869,0.007031858,0.2344327,1.5795231e-06,0.8217081,0.008019209
0.0042220354,0.0,6.556511e-06,2.3275614e-05,8.940697e-08,2.0861626e-06,0.00012680888,0.0001526177,0.98338604,4.3183565e-05
0.9936917,5.9604645e-08,1.1920929e-07,3.5762787e-06,2.682209e-07,8.0794096e-05,0.0004912317,1.5199184e-06,1.9818544e-05,0.00075247884
0.9943359,0.0,1.3113022e-06,4.440546e-06,0.0,0.00017282367,0.00012668967,0.0007392168,3.9041042e-06,0.000110566616
0.08763048,8.940697e-07,1.1920929e-07,2.2739172e-05,0.0,0.0005694032,0.8660557,2.9802322e-07,9.834766e-06,9.298325e-06
0.914402,4.172325e-07,5.9604645e-07,2.0623207e-05,8.940697e-08,2.0503998e-05,0.0011062324,2.0861626e-06,0.055317193,0.0017146468
0.93906116,3.7252903e-06,1.3113022e-06,4.9710274e-05,1.7881393e-07,1.6182661e-05,0.0027765036,5.185604e-06,0.09811646,0.007784933
0.0022467673,0.0,9.23872e-07,1.0311604e-05,8.940697e-08,1.8775463e-06,0.00036990643,1.3828278e-05,0.9932277,2.2828579e-05
0.7230547,5.9604645e-07,0.00015157461,9.763241e-05,7.301569e-06,0.0018768907,0.015934855,0.13643715,0.00012248755,0.0140942335
0.00031757355,4.4703484e-07,0.0018517971,0.00018665195,1.1920929e-07,1.1354685e-05,0.00093469024,2.0086765e-05,0.99411553,1.7821789e-05
1.6629696e-05,2.026558e-06,0.00016978383,0.99788165,0.99269426,0.0001797378,0.008479953,2.3245811e-06,0.0042750537,8.761883e-06
0.9837857,0.0,1.7881393e-07,1.7285347e-06,5.841255e-06,0.00016885996,0.00083070993,4.61936e-06,0.00016435981,0.00047436357
0.9824712,8.34465e-07,2.1666288e-05,1.9580126e-05,2.9802322e-08,0.0001681447,0.0003296435,5.2541494e-05,0.0012128651,0.0047960877
0.9223186,0.0,7.376075e-05,2.6226044e-05,0.0,5.7905912e-05,0.00014615059,0.00481081,0.0665102,0.00014838576
0.0004247427,0.00060364604,2.8073788e-05,0.0009636879,1.7881393e-07,0.00065910816,0.99003136,5.543232e-06,0.0012357831,0.0001680851
0.00077688694,0.0,4.3958426e-05,6.4074993e-06,1.5199184e-06,3.835559e-05,0.0026172101,0.9827125,0.00012210011,0.0016933084
0.0007843077,6.0498714e-06,8.59499e-05,0.9945188,0.00045755506,0.0016765296,0.017089725,5.275011e-06,0.00015228987,0.0061506927
0.0004082322,1.1712313e-05,3.4928322e-05,1.8954277e-05,2.8640032e-05,0.7130408,0.6644209,4.9471855e-06,8.457899e-05,3.0010939e-05
7.900596e-05,0.00037753582,0.012821585,0.0012694299,0.16785192,0.0011769235,0.92051935,0.0030400455,0.7114874,0.0018195212
0.0036343038,0.00013837218,0.9915788,0.0011131465,4.61936e-06,7.760525e-05,0.00011727214,0.0003646016,0.15370977,3.1501055e-05
0.00091686845,0.0,6.0498714e-06,1.3977289e-05,1.1920929e-07,1.1920929e-06,9.703636e-05,6.869435e-05,0.9934627,6.836653e-05
0.99299824,2.9802322e-08,4.5895576e-06,3.927946e-05,2.9802322e-08,0.00028765202,0.0001898408,8.9496374e-05,5.7131052e-05,0.00067028403
0.98129725,1.4901161e-07,1.3142824e-05,1.0609627e-05,5.364418e-07,0.00023198128,0.0002772212,0.00032570958,0.0002348125,0.007903367
0.00020885468,0.0,2.9802322e-08,0.9983015,2.0861626e-07,8.156896e-05,0.0002720058,1.1920929e-07,6.556511e-06,1.5735626e-05
0.00051271915,0.0,1.937151e-06,0.99868375,3.33786e-05,0.00016263127,0.0019911826,9.834766e-07,1.5377998e-05,9.641051e-05
0.0042992234,0.0,3.054738e-05,1.7881393e-06,0.0,1.4901161e-06,0.00015699863,0.012973756,0.9883276,1.9967556e-06
0.98655534,2.9802322e-07,1.0728836e-06,7.581711e-05,5.364418e-07,8.612871e-05,0.00059726834,6.467104e-06,0.0003425181,0.0033743083
0.99222934,5.9604645e-08,5.632639e-06,3.3169985e-05,0.0,0.00032564998,0.00034305453,5.64754e-05,7.95722e-05,0.000965327
0.0005944371,0.00032755733,2.8014183e-06,0.00036996603,0.0,0.004330009,0.9095281,4.7683716e-07,0.00034421682,0.000111192465
0.00057551265,0.01379472,0.00029441714,2.0325184e-05,0.00022545457,0.00029438734,0.6472816,4.3809414e-05,3.296137e-05,0.018995732
0.9520973,2.9802322e-07,1.1354685e-05,2.05338e-05,2.9802322e-08,5.799532e-05,0.0006695092,0.0002590418,0.04724428,0.0019708276
0.0076657534,0.0001243949,9.387732e-06,0.00057423115,6.2584877e-07,0.0014782846,0.93215847,1.847744e-06,0.000106185675,9.718537e-05
0.0025091171,1.8179417e-06,0.001552254,9.715557e-05,0.00051146746,9.509921e-05,0.0038380325,0.013043582,0.93016136,0.0068113506
0.8612518,6.854534e-07,9.357929e-06,2.3305416e-05,1.7881393e-07,2.2292137e-05,0.00067025423,0.0001949668,0.20286798,0.012681007
0.00044444203,2.9802322e-08,9.8735094e-05,0.0014306009,3.427267e-06,1.9073486e-06,0.00031650066,3.501773e-05,0.993577,5.38826e-05
5.2452087e-06,0.98715425,0.013388813,0.009597003,9.23872e-07,0.0017659962,0.011121988,0.0,0.9636792,0.00032359362
0.0039177537,8.940697e-08,3.3974648e-06,5.9068203e-05,1.1622906e-06,4.6789646e-06,0.000726521,3.33488e-05,0.98700166,0.0008459389
0.005190611,0.00015705824,0.9707997,0.0005553663,0.00015211105,0.00035580993,0.00037160516,0.00151667,0.16166893,0.0002463162
0.00029546022,0.90667695,0.006987214,0.065975696,0.00017246604,0.00033470988,0.0017829835,0.0,0.11796296,0.040843755
0.118607074,1.1920929e-07,9.268522e-06,5.376339e-05,5.662441e-07,1.4483929e-05,0.001034826,0.000120550394,0.8780769,0.0018002093
7.376075e-05,0.9309997,0.00065612793,0.00088101625,4.4703484e-07,0.0002850592,0.0054632723,8.940697e-08,0.9269127,0.011116415
0.00045391917,0.90781057,0.0012041628,0.00044804811,2.065301e-05,0.00010198355,0.0013021529,8.940697e-08,0.21911865,0.06272042
0.0010028481,0.45127565,0.09740287,5.1170588e-05,0.0009471774,0.00020632148,0.00086060166,1.9073486e-06,0.00548473,0.28120047
5.4836273e-06,1.9073486e-06,7.1525574e-05,4.8547983e-05,2.7120113e-06,0.9974984,0.0073716342,4.976988e-06,0.00035503507,2.5004148e-05
1.809001e-05,0.8015027,0.06099397,2.0205975e-05,0.0040661395,0.0003901422,0.17284128,9.23872e-07,0.0043635666,0.013242066
0.00066804886,0.0028457046,0.98296475,0.00018551946,2.1189451e-05,2.5093555e-05,1.1593103e-05,9.834766e-07,0.06595883,1.4543533e-05
0.146977,5.3942204e-06,4.976988e-06,0.0,9.3609095e-05,4.082918e-06,2.2053719e-05,6.020069e-06,0.00023782253,0.9254963
2.8550625e-05,0.01323989,0.005675614,0.971776,0.59523296,0.99282384,0.012561619,1.1920929e-06,0.0086115,0.00057917833
0.9784378,1.4901161e-07,1.9669533e-06,2.30968e-05,1.21593475e-05,0.00013801455,0.00048685074,5.3048134e-06,0.00039497018,0.0018087924
4.5597553e-05,0.023054838,0.0002680421,0.997637,0.0061364174,0.22847071,0.2305524,0.0,0.27566436,0.0005401075
0.036244422,0.0,1.4662743e-05,3.5196543e-05,9.23872e-07,2.065301e-05,9.769201e-05,0.97254586,5.5223703e-05,0.00047963858
0.9593487,5.9604645e-07,9.340048e-05,8.815527e-05,3.2782555e-07,0.0006225407,0.00116238,0.001055479,0.0015719235,0.0017321408
0.987811,9.834766e-07,0.00014021993,7.599592e-05,8.940697e-08,0.0005096197,0.0005810559,0.00011777878,9.483099e-05,0.0011391044
0.99392724,8.940697e-08,6.854534e-07,1.0341406e-05,1.1920929e-07,8.9883804e-05,0.00025761127,3.784895e-06,4.8846006e-05,0.0008665621
3.516674e-05,8.493662e-06,5.632639e-06,0.0,5.543232e-06,1.4901161e-07,1.4901161e-07,1.7881393e-07,0.00020611286,0.9990266
0.0023387372,2.2649765e-06,4.6759844e-05,5.9604645e-07,2.0861626e-07,0.0026544034,0.7223456,0.033120602,0.0007061064,0.0018032491
0.002333939,1.9907951e-05,0.0003106892,0.00086289644,0.0045242906,0.00057581067,0.24710548,0.002060473,0.97502404,0.0024254024
0.00010281801,3.913045e-05,9.047985e-05,0.9949726,0.09402284,0.0027968585,0.04449421,3.6358833e-06,0.0008226633,0.01882121
0.1004076,6.8843365e-06,0.006471336,7.4505806e-06,0.00915277,3.913045e-05,0.0015539825,0.055650145,0.49160016,0.026802272
0.0013446808,0.1595065,0.00347507,0.99417305,0.045461595,0.0035915077,0.34955972,8.940697e-08,0.26121968,0.0024558306
0.00013807416,0.0,0.00020065904,5.13494e-05,4.7385693e-06,2.026558e-06,0.0002309084,7.587671e-05,0.9975203,2.0563602e-06
0.99147284,2.9802322e-08,8.940697e-08,5.841255e-06,2.9802322e-08,2.1517277e-05,0.00032955408,1.4305115e-06,0.00017270446,0.0009459853
0.0032019615,0.00015160441,2.8282404e-05,1.4662743e-05,6.2584877e-07,0.0014384091,0.8188865,4.23193e-06,2.092123e-05,0.00016453862
0.9707316,2.9802322e-07,4.425645e-05,7.599592e-06,6.854534e-07,0.00044503808,0.00035390258,0.0026976764,0.00033131242,0.016241103
5.6564808e-05,0.007201642,0.0013345778,0.9847946,0.92430574,0.9726125,0.1121774,1.4305115e-06,0.0056200027,0.00024914742
0.0479919,0.002626896,0.008128762,2.3841858e-07,0.0012378991,3.0070543e-05,0.00017404556,0.00043851137,0.0023431182,0.8805258
1.1593103e-05,0.0,3.33786e-06,0.99793094,0.00015556812,0.0005457103,0.00022900105,2.413988e-06,0.00024196506,0.000115811825
0.97174436,0.0,5.364418e-07,8.255243e-06,0.0,0.00015327334,0.0036755502,0.00063055754,1.8954277e-05,0.00013247132
0.047991604,0.0,4.9740076e-05,5.155802e-06,4.7683716e-07,6.7442656e-05,0.001858294,0.9754307,5.2273273e-05,0.0004632175
9.864569e-06,1.1920929e-07,9.000301e-06,0.9994807,0.0007612705,6.189942e-05,0.0016337335,1.7881393e-07,0.002614677,4.091859e-05
9.405613e-05,0.9720582,0.0019938648,8.940697e-07,1.1026859e-06,0.00024551153,0.0008623898,1.1920929e-07,0.16313097,0.013164729
4.389882e-05,1.1026859e-06,1.3113022e-06,0.0,7.212162e-06,1.1920929e-07,8.940697e-08,2.0861626e-07,0.00026741624,0.99889994
0.00022816658,3.33786e-06,9.23872e-07,0.0,1.2695789e-05,1.7881393e-07,9.23872e-07,6.2584877e-07,0.004137516,0.9959671
0.98385483,0.0,1.758337e-06,4.3570995e-05,2.9802322e-08,0.00011616945,0.00048148632,1.1652708e-05,0.0054710507,0.000115305185
8.0525875e-05,2.682209e-06,2.3961067e-05,0.00019687414,1.9669533e-06,0.99437106,0.0055804253,8.6426735e-07,0.0008854866,1.4334917e-05
1.4066696e-05,1.9669533e-06,9.265542e-05,0.9969361,0.9943434,0.0004977286,0.01177153,4.5001507e-06,0.0032713413,4.6283007e-05
0.010971665,0.0,8.404255e-06,2.2947788e-06,5.9604645e-08,3.8444996e-06,6.952882e-05,0.98808336,3.540516e-05,1.5825033e-05
0.042574227,2.9802322e-08,1.9073486e-06,2.0772219e-05,2.682209e-07,9.5665455e-06,0.0012381375,6.970763e-05,0.9587077,0.0009648204
0.99240077,5.9604645e-08,2.0861626e-06,5.4240227e-06,0.0,0.000107467175,0.0001924634,8.717179e-05,2.8848648e-05,0.0018945336
0.0043473244,0.0,0.0002605021,0.00037893653,2.5898218e-05,7.2717667e-06,0.000104665756,0.9849293,0.003540814,0.0015455782
0.0037629604,4.7683716e-05,0.99347967,0.0073551238,5.751848e-06,0.00017097592,9.295344e-05,0.00022563338,0.0046761036,0.00010070205
0.0011745989,0.0,5.811453e-06,9.62615e-06,0.0,1.7881393e-06,0.00022897124,8.046627e-06,0.99200696,1.7851591e-05
0.0004029274,0.0002744794,1.0728836e-05,0.00071293116,1.4901161e-07,0.0009022355,0.9871606,3.4034252e-05,0.0053215623,0.00034341216
0.10290983,0.0,9.804964e-06,8.7320805e-06,1.7881393e-07,1.168251e-05,0.0005531609,0.00092050433,0.8979697,0.001514107
3.72231e-05,0.00011450052,0.0019092858,0.0007751584,7.4505806e-06,0.9967252,0.004676789,0.0009509623,0.00059750676,0.0011654496
0.9593422,1.1920929e-07,1.4692545e-05,4.2021275e-06,5.066395e-07,0.0001449287,0.00027045608,0.0013135374,0.0012408197,0.013324708
0.95291305,0.0,5.8084726e-05,2.4437904e-06,1.1920929e-07,0.0003080368,7.137656e-05,0.0070777833,0.00012978911,0.020796746
4.9829483e-05,0.0003825426,0.004364252,0.00017088652,8.6426735e-06,3.325939e-05,0.0006196201,1.7285347e-06,0.9927336,8.094311e-05
0.00021103024,4.1216612e-05,1.013279e-06,4.053116e-06,1.4901161e-07,0.00015315413,0.9802555,3.5762787e-07,9.149313e-06,6.181002e-05
0.99722147,0.0,1.1920929e-07,1.0728836e-06,0.0,9.5933676e-05,0.00020048022,4.261732e-06,2.4735928e-06,0.00048679113
3.5464764e-05,6.854534e-07,2.503395e-06,0.99980366,3.9875507e-05,0.0004784763,0.004649818,0.0,0.00051650405,7.298589e-05
0.0005646348,0.0,6.6161156e-06,8.165836e-06,1.1920929e-07,1.013279e-06,7.0393085e-05,0.99768066,5.2303076e-05,4.3720007e-05
0.0003414452,0.0,5.477667e-05,2.4467707e-05,2.9802322e-08,1.3709068e-06,0.0001771152,1.4305115e-05,0.9967424,1.8775463e-06
0.02379182,0.008058131,0.00014489889,3.3676624e-06,1.001358e-05,5.120039e-05,0.0010847747,1.8119812e-05,0.55045086,0.13984647
4.300475e-05,0.0,1.257658e-05,7.033348e-06,8.34465e-07,1.0728836e-06,0.00012430549,0.99878544,2.4557114e-05,7.003546e-05
0.0006952286,0.015031368,0.0026133955,0.0077567697,1.3023615e-05,0.0013077855,0.94312036,0.00012913346,0.004936576,0.005391538
0.028430164,0.0,9.298325e-06,2.2947788e-05,2.9802322e-08,3.1590462e-06,0.00045472383,0.00014397502,0.9829514,3.489852e-05
4.6908855e-05,2.3841858e-06,1.1920929e-07,0.0,2.3245811e-06,0.0,0.0,0.0,0.0012165904,0.9990918
0.00019437075,0.56888765,0.0012684166,0.00020235777,0.00078493357,4.1663647e-05,0.0009569824,4.172325e-07,0.5472821,0.45878416
0.046450555,2.3841858e-07,1.2397766e-05,3.0428171e-05,1.3709068e-06,5.108118e-05,0.0071148574,0.0017769337,0.93609965,0.0036340356
0.00019782782,6.854534e-07,9.387732e-06,5.0216913e-05,6.854534e-07,0.9903382,0.008279055,2.682209e-07,8.4728e-05,6.645918e-06
0.99766946,0.0,2.9802322e-08,2.6524067e-06,0.0,3.3318996e-05,0.00018641353,1.3113022e-06,3.963709e-06,0.00030115247
0.99839664,0.0,1.7881393e-07,9.119511e-06,0.0,6.908178e-05,0.00015288591,4.6789646e-06,7.2717667e-06,5.671382e-05
0.9965183,0.0,4.7683716e-07,4.0233135e-06,0.0,7.31647e-05,0.00015044212,1.4424324e-05,1.835823e-05,0.00032544136
0.98945934,8.940697e-08,0.00013783574,5.698204e-05,5.9604645e-08,0.00053724647,0.00022408366,0.0006826222,9.778142e-05,0.0006797612
0.0003132522,0.0,4.6759844e-05,0.00024208426,1.5199184e-06,8.046627e-07,0.00022757053,2.4288893e-05,0.99711096,1.7881393e-06
0.99636877,5.9604645e-08,2.6226044e-06,1.5228987e-05,0.0,0.00013324618,0.00026994944,2.0295382e-05,0.00010198355,0.0005029142
0.0013166368,9.408593e-05,0.00023052096,0.0035336018,1.168251e-05,0.9911509,0.0039078593,2.0086765e-05,0.00014454126,0.00046265125
0.063108,3.874302e-07,2.682209e-07,3.272295e-05,0.0,1.8537045e-05,0.0017362833,5.9604645e-07,0.9186319,0.00031331182
0.4912938,0.0,2.5004148e-05,1.1980534e-05,4.172325e-07,0.00022131205,8.773804e-05,0.6753068,3.8653612e-05,0.005037576
0.016178936,0.71889573,0.11316219,3.993511e-06,7.414818e-05,0.00016325712,0.0009534657,2.3841858e-07,0.00211218,0.016385198
7.3969364e-05,0.8930811,0.036608666,1.7732382e-05,4.386902e-05,0.00072690845,0.0013879836,4.7683716e-07,0.02382645,0.098391265
0.99703896,0.0,3.2782555e-07,5.930662e-06,0.0,0.000116854906,0.00016742945,1.052022e-05,7.033348e-06,0.00033468008
3.0994415e-05,0.00012779236,0.001750052,0.032034278,0.017434537,0.987518,0.02271539,3.376603e-05,0.04482767,0.00027826428
0.99842745,0.0,2.9802322e-08,5.275011e-06,0.0,3.6239624e-05,0.00025179982,1.4007092e-06,5.2452087e-06,8.293986e-05
8.7320805e-06,7.1525574e-07,0.00063726306,0.99823177,0.9200199,0.00020137429,0.0019053221,3.5464764e-06,0.064851195,3.8683414e-05
0.0017309785,3.33786e-06,7.429719e-05,5.4836273e-05,8.764863e-05,1.04904175e-05,0.00038462877,8.1539154e-05,0.97107935,0.006850451
0.89726424,0.0,1.3530254e-05,7.748604e-07,2.0861626e-07,0.00019878149,8.4370375e-05,0.14555416,0.00015980005,0.004949957
0.0049999356,0.0,1.642108e-05,7.867813e-06,4.440546e-06,1.4007092e-06,0.00026220083,0.00047200918,0.9811161,0.00027298927
0.99856275,0.0,1.1920929e-07,8.583069e-06,0.0,3.5196543e-05,0.00026369095,1.013279e-06,4.053116e-06,9.134412e-05
0.0005430281,7.8976154e-05,0.009601623,0.00090011954,0.018107384,0.00012105703,0.0077439547,0.00027179718,0.98306465,0.00067815185
6.467104e-06,6.2584877e-07,2.3841858e-07,0.9988376,6.854534e-07,0.00027409196,0.0027440786,2.9802322e-08,0.014546275,0.0002516508
0.9951757,0.0,1.1920929e-07,7.212162e-06,5.9604645e-08,4.5269728e-05,0.00032123923,3.4570694e-06,1.6182661e-05,0.0008533299
0.007688284,1.1920929e-07,1.013279e-05,5.3972006e-05,4.798174e-06,1.090765e-05,0.0011292398,4.1246414e-05,0.97603023,0.0006262362
1.0222197e-05,6.854534e-07,3.1232834e-05,1.4334917e-05,1.4901161e-07,0.9978119,0.0044679344,6.854534e-07,0.00033459067,5.1259995e-06
0.79298687,5.9604645e-07,1.9788742e-05,0.00018173456,3.5762787e-07,0.00010386109,0.0023450553,1.8000603e-05,0.34212813,0.00044873357
0.0036434233,3.1888485e-06,2.8908253e-06,4.8339367e-05,4.7683716e-07,1.9192696e-05,0.0012452304,3.3080578e-06,0.97983783,0.0023988783
0.010143638,1.1920929e-07,1.7881393e-07,0.9856797,1.7881393e-07,0.0007920265,0.014153123,1.7285347e-06,3.415346e-05,0.0020806491
0.9722414,0.0,1.3142824e-05,6.645918e-06,4.172325e-07,0.00029689074,0.00014171004,0.0014145374,0.00021126866,0.0010005236
0.00041517615,3.9041042e-06,4.172325e-05,0.9973855,0.011346191,0.0037667751,0.108590335,1.835823e-05,3.129244e-05,0.007913649
2.3305416e-05,2.0861626e-07,1.4364719e-05,0.9993042,0.0012203157,0.00013399124,0.0011338294,1.1920929e-07,0.0030371249,6.29127e-05
0.00015479326,0.0,1.7285347e-05,4.172325e-07,9.23872e-07,0.0009352565,0.4995731,0.34385884,0.00012481213,0.00123927
0.0021611154,1.6987324e-06,1.937151e-06,1.1920929e-07,1.5854836e-05,3.0100346e-06,2.2053719e-05,0.00011086464,0.008874357,0.9832669
6.9886446e-05,1.2218952e-06,2.1368265e-05,0.999083,0.0050129592,0.0005662441,0.002816528,5.662441e-07,0.00061249733,0.0002643168
0.019657344,2.0861626e-07,3.8146973e-06,0.00021767616,5.066395e-07,7.2717667e-06,0.000997901,1.23381615e-05,0.9522064,0.0007791817
7.480383e-06,0.987377,0.007254839,0.47644264,4.172325e-06,0.00204584,0.005485028,0.0,0.9516587,0.003762871
5.6535006e-05,4.172325e-07,5.3048134e-06,0.99905765,0.0002657771,0.00034561753,0.0012441576,5.9604645e-08,0.00042003393,8.8214874e-05
0.0006887615,7.778406e-06,4.172325e-07,0.0,9.387732e-06,1.1920929e-07,1.4901161e-06,3.2782555e-07,0.0046553016,0.9955633
2.8967857e-05,0.0,7.972121e-05,0.9965059,0.0021212697,0.00018951297,0.0005390942,7.259846e-05,0.00017365813,0.00036668777
0.00018405914,8.481741e-05,4.7683716e-07,0.000798434,0.0,0.0005040169,0.9774691,3.993511e-06,0.15663767,0.000109404325
0.017266244,8.839369e-05,0.98393977,0.007898778,0.00015434623,0.0010359287,0.00022011995,0.0010285378,0.0132443905,0.00056147575
0.99544597,0.0,5.364418e-07,1.5497208e-06,0.0,0.00013315678,0.00013053417,5.748868e-05,5.722046e-06,0.00049838424
0.5752304,1.1384487e-05,2.3543835e-06,1.2099743e-05,2.0861626e-07,1.591444e-05,0.0013798177,4.9740076e-05,0.32079214,0.08355129
0.00016990304,1.9073486e-05,0.00024333596,0.00033262372,7.748604e-07,0.9946263,0.003921926,1.2040138e-05,0.00011083484,8.332729e-05
3.4213066e-05,8.34465e-06,5.275011e-06,0.0,5.1259995e-06,2.0861626e-07,1.4901161e-07,1.7881393e-07,0.00020641088,0.99903476
0.9962723,0.0,8.940697e-08,2.682209e-06,0.0,2.7745962e-05,0.00013706088,5.811453e-06,7.1823597e-06,0.0003796816
0.00090920925,0.0,1.9073486e-06,1.1593103e-05,0.0,1.4901161e-06,0.00019320846,4.9471855e-06,0.99356693,1.2129545e-05
0.98752904,2.9802322e-07,3.9041042e-06,3.3557415e-05,1.7881393e-06,0.00024294853,0.0004466474,2.4080276e-05,0.00012814999,0.0031846166
0.9700216,0.0,2.0861626e-06,2.3841858e-05,2.9802322e-08,6.16312e-05,0.00028324127,4.1633844e-05,0.011793345,0.000859648
0.00015100837,8.377433e-05,6.854534e-07,6.556511e-07,1.7881393e-07,7.9125166e-05,0.98510087,5.9604645e-08,4.196167e-05,4.23491e-05
0.6018871,6.490946e-05,0.8764683,0.0011113286,2.6106834e-05,0.0017304122,0.0002513528,0.026857823,0.0024745166,0.0048074126
0.97575045,2.0861626e-07,0.00017926097,4.6253204e-05,1.758337e-06,0.00102368,0.00034189224,0.0022670925,7.31349e-05,0.0035015643
0.0028515458,0.0017702281,5.7429075e-05,2.9802322e-08,0.0031569004,2.4735928e-06,2.0712614e-05,1.937151e-06,0.0020130575,0.97271353
6.765127e-06,0.9592506,0.010161221,3.3318996e-05,2.065301e-05,0.0004156828,0.027767628,1.1920929e-07,0.25033405,0.017730117
0.975194,2.95043e-06,1.2844801e-05,5.90086e-06,2.4437904e-06,0.00015234947,0.00040963292,1.7791986e-05,0.000110924244,0.018802792
1.2993813e-05,9.804964e-06,0.0007044375,0.9991766,0.014698684,2.554059e-05,0.003561765,5.9604645e-08,0.63987994,6.556511e-06
0.43430504,0.0017325282,0.8558378,0.00010177493,8.940697e-06,0.0002632439,0.0001963377,0.00033897161,0.0036617815,0.0016045272
0.028362572,0.0,2.1159649e-05,4.798174e-06,9.23872e-07,9.179115e-06,0.00043591857,0.00305897,0.94566363,0.0019782186
1.6450882e-05,0.3588416,0.40627342,0.8539016,0.0029701889,0.00049084425,0.00095915794,1.1920929e-07,0.9200648,0.00043651462
0.8612171,5.9604645e-08,0.0008586049,3.889203e-05,3.1292439e-06,0.0006288588,0.00012913346,0.09387863,0.00040885806,0.012431055
0.0009938478,7.390976e-06,0.7594422,0.0007340908,0.00010085106,3.311038e-05,0.0009095073,0.0012161732,0.97096306,6.3180923e-06
0.9948933,0.0,5.9604645e-08,7.033348e-06,2.9802322e-07,3.5077333e-05,0.00046288967,8.940697e-07,5.0753355e-05,0.00058048964
3.5971403e-05,0.009281188,0.003230989,0.9931792,0.00011047721,0.002718091,0.006384641,8.940697e-08,0.89422506,0.00043663383
0.00025203824,7.4505806e-07,3.2782555e-06,0.9993781,0.0005556643,0.0046441257,0.006403595,1.1920929e-07,2.8461218e-05,0.0004607141
0.0011793673,1.5497208e-06,2.7060509e-05,7.942319e-05,3.5762787e-07,2.6911497e-05,0.0030308664,1.218915e-05,0.99264264,0.00025895238
5.507469e-05,0.8685883,0.03813362,0.9955993,0.55825824,0.38371617,0.56154066,1.1920929e-07,0.15820092,0.00018432736
0.9972496,0.0,1.1920929e-06,1.9967556e-05,2.9802322e-08,0.00027629733,0.00020629168,4.8339367e-05,8.34465e-06,0.00012943149
4.0233135e-06,0.9763708,0.008246869,0.00015714765,1.7911196e-05,0.0008023977,0.0080810785,8.940697e-08,0.7859896,0.0055054724
0.9986234,0.0,0.0,2.6524067e-06,0.0,1.6629696e-05,0.00023269653,5.662441e-07,2.3245811e-06,7.69496e-05
0.0014612973,0.0,7.2300434e-05,4.2766333e-05,1.0728836e-06,4.61936e-06,0.00025299191,0.000461936,0.9906901,3.0577183e-05
0.003653735,0.006485313,0.0012630224,0.00026369095,0.0002426207,7.197261e-05,0.0009586215,3.3289194e-05,0.77677673,0.2598424
4.0978193e-05,0.9756655,0.002298385,0.84493625,2.3782253e-05,0.0014129877,0.0017507672,0.0,0.42626122,0.012135476
0.7573302,5.9604645e-08,6.556511e-06,9.953976e-06,4.7683716e-07,1.8894672e-05,0.00085157156,0.00072953105,0.15889215,0.0012842417
4.887581e-06,1.0550022e-05,0.00042513013,0.03470874,0.00018808246,0.99797887,0.003600806,6.854534e-07,0.008664697,7.5280666e-05
0.9920979,0.0,8.046627e-07,9.23872e-07,1.7881393e-07,0.00029352307,0.00016534328,0.00016438961,5.5730343e-06,0.0014567971
4.6670437e-05,0.0,0.00015312433,7.95722e-06,5.8710575e-06,7.748604e-07,2.7030706e-05,0.87204826,0.9775898,6.5267086e-06
1.0877848e-05,0.9682411,0.015813828,0.012717873,3.4064054e-05,0.0029242635,0.018116057,2.0861626e-07,0.9126996,0.006921321
0.9932814,6.2584877e-07,1.54078e-05,1.4454126e-05,0.0,0.0001654625,0.00028678775,1.4424324e-05,9.87947e-05,0.0014325976
3.8295984e-05,0.005807221,0.0018810034,0.0028796792,0.0008197725,0.96375674,0.12925476,1.1026859e-05,0.7240473,8.5920095e-05
0.0007221401,0.0,0.00010496378,0.00044095516,1.5199184e-06,1.5497208e-06,0.00048959255,1.6123056e-05,0.9965724,9.119511e-06
0.00020495057,0.8931083,0.01979649,0.053688526,0.000821203,0.0013679564,0.0015100241,4.7683716e-07,0.17804092,0.23766631
0.0026856065,0.0063127875,0.06036803,0.27286845,0.2236974,0.96318454,0.024448842,0.0017299056,0.0007159412,0.02568236
0.0005106032,8.940697e-07,5.632639e-06,5.9604645e-08,2.2411346e-05,7.748604e-07,9.000301e-06,0.00027358532,0.0017460287,0.98852885
0.010224879,1.2218952e-06,7.376075e-05,0.98462963,1.92523e-05,0.00028949976,0.001280278,1.4901161e-06,0.02577439,0.0002821982
0.0065570176,2.9802322e-08,2.5719404e-05,3.8802624e-05,2.2351742e-06,1.0997057e-05,0.0005981326,0.000677824,0.9798167,0.0006496012
0.0001936853,0.0,0.000104278326,2.0563602e-05,2.9802322e-07,1.7881393e-07,5.2273273e-05,0.00012803078,0.9988506,3.5762787e-07
0.00018143654,5.9604645e-08,2.3782253e-05,0.9974748,1.5199184e-06,6.4373016e-05,0.0009250939,2.3841858e-07,3.939867e-05,3.4183264e-05
0.0005636513,1.3649464e-05,0.00022622943,2.0056963e-05,1.6391277e-06,0.97386384,0.03174898,0.0004018247,0.005084008,0.00020718575
0.0009927452,0.0024703145,0.9763059,0.00092074275,0.00021359324,9.766221e-05,3.9875507e-05,6.6161156e-06,0.03539121,0.0002579987
0.51614296,0.0,5.5640936e-05,6.943941e-06,2.1487474e-05,0.0001347959,0.0005826354,0.4557562,0.002722472,0.013961494
2.0712614e-05,0.0032802224,9.328127e-05,1.2814999e-06,3.1590462e-06,0.00024077296,0.9649658,4.3809414e-06,0.00056901574,0.0007137954
0.9982108,0.0,1.1920929e-07,1.9609928e-05,0.0,7.250905e-05,0.00027230382,1.758337e-06,1.1116266e-05,9.146333e-05
0.00014415383,8.940697e-08,8.940697e-08,0.99818015,1.5199184e-06,0.0005171597,0.002481252,1.1920929e-07,0.00017797947,0.00022783875
0.0203377,0.00043293834,4.711747e-05,0.00042039156,1.7881393e-07,0.00033402443,0.6826483,0.00027504563,0.005125314,0.0060248077
0.00022384524,0.0,1.0102987e-05,0.0003784001,8.940697e-08,1.1920929e-07,0.00017490983,1.0311604e-05,0.9987986,2.9802322e-07
0.013788909,6.2584877e-07,2.95043e-06,0.00016030669,5.066395e-07,1.5854836e-05,0.0012641251,1.4603138e-05,0.9662874,0.0023887157
5.7429075e-05,0.57241,0.34901947,0.82853496,0.009640634,0.001475513,0.015401632,2.0861626e-07,0.92887807,0.0011223555
0.9959934,0.0,5.066395e-07,3.8444996e-06,0.0,7.253885e-05,0.0001488626,9.745359e-06,1.591444e-05,0.0007033646
0.99470615,8.940697e-08,4.1127205e-06,0.00012987852,0.0,0.00025334954,0.0004671216,3.2514334e-05,5.9455633e-05,0.00026378036
0.9843205,5.9604645e-08,7.748604e-07,7.688999e-06,8.940697e-08,3.5613775e-05,0.0006021857,2.0235777e-05,0.00049316883,0.0039519966
0.0010181665,2.9802322e-08,6.774068e-05,0.00016978383,1.2755394e-05,4.6789646e-06,0.00042623281,4.7415495e-05,0.99071884,8.2969666e-05
0.09137675,1.1920929e-07,1.0699034e-05,0.00013133883,2.5331974e-06,1.719594e-05,0.00097242,6.0260296e-05,0.87729156,0.0009934902
0.0007867813,0.0,5.8710575e-05,4.6104193e-05,1.6093254e-06,3.2484531e-06,0.0003953874,0.996711,0.00012743473,0.00016108155
0.996694,0.0,8.940697e-08,2.220273e-05,0.0,3.927946e-05,0.0002848208,1.3113022e-06,1.0758638e-05,0.00040981174
9.062886e-05,0.2846505,0.6156,0.40326118,0.12783429,0.94879436,0.05725798,0.0001770556,0.20343992,0.005943835
0.8541448,3.874302e-07,7.2300434e-05,0.00010481477,2.682209e-07,0.00012218952,0.00035759807,0.000849843,0.1557751,0.006392151
0.8357507,5.8412552e-05,0.06829342,0.00032815337,8.687377e-05,0.0020515919,0.0018342137,0.030499607,0.013135791,0.01536417
0.0052467287,1.7881393e-07,0.00012409687,9.343028e-05,3.194809e-05,8.672476e-06,0.00041601062,0.00026515126,0.9579452,0.0020335019
0.00022476912,2.9802322e-08,0.00032633543,0.00059199333,8.59499e-05,2.8312206e-06,0.00030705333,0.00020623207,0.995764,3.4034252e-05
0.001673013,2.7030706e-05,2.592802e-06,1.0967255e-05,3.0398369e-06,0.00087824464,0.93836915,3.5762787e-07,1.7613173e-05,8.147955e-05
0.02663362,1.4901161e-07,3.1888485e-06,3.6358833e-06,0.0,6.467104e-06,0.0005081594,7.840991e-05,0.96030223,0.0018512905
0.98597544,1.7881393e-07,8.046627e-07,1.0222197e-05,8.34465e-07,7.915497e-05,0.00052031875,1.1265278e-05,0.00013843179,0.0047754645
0.99086225,2.9802322e-08,2.592802e-06,2.6613474e-05,7.4505806e-07,0.000454098,0.00038021803,5.632639e-05,2.8133392e-05,0.0012600124
0.0168975,0.0,1.1116266e-05,1.6182661e-05,8.225441e-06,3.8146973e-05,0.0016100109,0.9804832,8.234382e-05,0.0006234944
0.00042700768,0.00035104156,0.00014612079,0.002167344,3.5762787e-06,0.9930803,0.0059577227,8.34465e-07,0.000119149685,4.1097403e-05
0.35487205,5.9604645e-08,1.7821789e-05,1.5318394e-05,0.0,4.1365623e-05,0.009577602,0.0005542338,0.82302547,0.0006969571
0.0004312396,2.3841858e-07,0.0011966228,0.0002142191,4.9591064e-05,6.7949295e-06,0.00063866377,0.00018081069,0.99355143,4.3421984e-05
8.314848e-06,0.0016127229,0.8069058,0.01292184,0.0012831688,7.498264e-05,0.00053721666,1.4990568e-05,0.9754927,2.1189451e-05
7.95424e-05,2.8073788e-05,1.642108e-05,0.99077725,1.579523e-05,7.003546e-05,0.14045411,8.34465e-07,0.8031701,0.0002591014
9.0807676e-05,1.2814999e-06,1.013279e-06,0.0,1.0788441e-05,5.9604645e-08,1.7881393e-07,2.682209e-07,0.00043681264,0.9985542
0.06389457,5.2839518e-05,0.004404396,0.00614959,0.0019198656,0.00013747811,0.010388583,0.0032978058,0.9188287,0.005386263
0.17322546,3.7699938e-05,3.2424927e-05,1.692772e-05,7.176399e-05,0.0010718703,0.05745554,0.0041511655,0.001360178,0.11641717
0.98464566,2.9802322e-08,1.859665e-05,8.434057e-06,1.4901161e-07,0.00054106116,0.00025877357,0.0016555786,5.2392483e-05,0.0035409033
0.9825888,0.0,3.9041042e-06,1.001358e-05,2.9802322e-07,0.00030776858,0.00028538704,0.00035348535,0.00038298965,0.0017033219
0.00076428056,0.8662014,0.053546935,1.6391277e-06,0.0002541244,0.00085270405,0.02194938,1.0281801e-05,0.039020777,0.041665167
0.0007529855,4.6491623e-06,1.2218952e-06,1.1920929e-07,1.6719103e-05,6.2584877e-07,5.364418e-06,3.9339066e-06,0.009663582,0.9921422
1.6957521e-05,2.1755695e-06,0.973868,0.0064693093,0.0046439767,1.9818544e-05,0.00027418137,0.0004885495,0.98553526,2.8014183e-06
0.9454649,5.00679e-06,0.06838596,0.0002478361,1.4901161e-07,0.0011938214,0.00021323562,0.015711874,0.0023722053,0.0015401244
4.1157007e-05,0.0006213486,0.14547804,0.9680747,0.002087772,0.00022798777,0.0017257929,2.6524067e-05,0.75338274,0.000505358
1.552701e-05,0.99257565,0.005613059,1.4394522e-05,2.0563602e-06,0.002044171,0.00082069635,0.0,0.0699113,0.0038382113
0.0005735159,0.0,3.2812357e-05,6.586313e-05,1.1920929e-07,1.1324883e-06,0.00029087067,3.1232834e-05,0.9968221,5.8710575e-06
0.00037935376,0.027843773,0.9574027,0.009668946,0.0009697974,0.5681601,0.009163022,0.00015962124,0.07353979,0.00021106005
0.6321669,1.8775463e-06,1.424551e-05,0.00011268258,5.9604645e-07,2.232194e-05,0.0010102689,0.0006581545,0.30879176,0.046773493
0.48965174,8.940697e-08,0.0018516481,8.910894e-06,1.1026859e-06,0.00039035082,0.0021033287,0.89132196,0.0017774701,0.00458017
0.9528558,0.0,2.208352e-05,1.3709068e-06,0.0,0.00013130903,4.9173832e-05,0.06689,2.3931265e-05,0.0010128915
1.001358e-05,4.979968e-05,0.0005160272,0.00033563375,7.271767e-05,0.9942701,0.02807489,0.00031980872,0.9419718,0.00011458993
0.67521846,8.940697e-08,2.655387e-05,4.9233437e-05,2.9802322e-08,8.225441e-06,0.0011588633,0.0013085008,0.65821505,0.0016353726
0.022630155,0.0,1.3619661e-05,5.543232e-06,8.940697e-07,7.688999e-06,0.0003682375,0.0020543933,0.9573343,0.0013671517
0.044974327,1.1920929e-06,4.0233135e-06,1.04904175e-05,9.536743e-07,8.940697e-06,0.0009814203,4.005432e-05,0.90931153,0.010526419
2.771616e-06,0.00034725666,0.003322512,0.00043323636,0.00015109777,0.99632215,0.025947928,8.499622e-05,0.8483701,0.00013500452
6.1661005e-05,0.05809751,0.0054133534,0.04015085,4.553795e-05,0.016844064,0.93862355,2.2351742e-06,0.00067818165,0.002024293
0.8834256,3.33786e-06,4.529953e-06,3.5762787e-07,1.5735626e-05,5.3942204e-05,0.00057557225,6.0737133e-05,0.00048601627,0.15658617
0.0003131926,0.0,3.349781e-05,4.798174e-05,6.854534e-07,1.50203705e-05,0.00049981475,0.99603105,4.3988228e-05,0.0016618669
6.1392784e-06,0.0,1.7911196e-05,1.4811754e-05,0.99917173,3.4570694e-06,0.0010131896,5.275011e-06,0.008916646,6.172061e-05
3.0368567e-05,0.1628663,0.017524749,0.0005175173,6.8843365e-06,0.21510491,0.81766385,0.008291751,0.22493485,0.008604974
0.9943592,2.9802322e-08,2.0861626e-07,3.2782555e-06,5.9604645e-08,7.2181225e-05,0.00034067035,2.4735928e-06,3.567338e-05,0.00059372187
1.335144e-05,0.0,8.940697e-08,0.9991373,8.672476e-06,3.528595e-05,0.0012467206,1.1920929e-07,0.0010299087,1.9222498e-05
0.0052060187,0.00010582805,0.0052221715,0.00021347404,0.004756689,8.186698e-05,0.0017579198,0.00044888258,0.8714832,0.0203892
0.10696307,8.4519386e-05,0.958972,0.0005656183,0.00012999773,0.0003798604,0.0023499131,0.051540315,0.099809974,0.0004169643
0.0004902482,7.414818e-05,2.8192997e-05,6.5118074e-05,2.9802322e-08,0.000772804,0.98537993,0.0002925098,0.005925417,0.0003103912
0.85717636,1.3709068e-06,8.165836e-06,3.5762787e-05,2.3841858e-07,6.237626e-05,0.0023466945,5.6177378e-05,0.16302133,0.007207066
0.00024583936,0.0030911565,0.019847214,0.00054332614,0.00011354685,0.4896531,0.6122085,0.003723234,0.0028237104,0.005987823
5.015731e-05,9.596348e-06,8.767843e-05,0.00026506186,3.1501055e-05,0.99227285,0.016973376,5.632639e-06,0.0027021468,2.6285648e-05
0.99190104,2.9802322e-08,2.682209e-07,7.212162e-06,2.1457672e-06,8.6158514e-05,0.00041475892,5.4240227e-06,1.886487e-05,0.0012493432
0.014926791,1.6450882e-05,1.3142824e-05,2.026558e-06,8.827448e-05,8.6426735e-06,6.67572e-05,0.00025627017,0.03300804,0.96736455
2.142787e-05,0.00034332275,0.002306223,0.0007172227,6.362796e-05,0.98995525,0.017357767,0.00011360645,0.7160888,0.00017002225
0.9959223,0.0,1.4305115e-06,2.9206276e-06,0.0,0.000101059675,9.9122524e-05,4.1782856e-05,7.5399876e-06,0.0004977286
0.00011906028,0.00013700128,0.9439901,0.98987186,0.0020220578,0.00016522408,0.00019553304,1.3411045e-06,0.004215777,2.0593405e-05
0.5883862,3.2782555e-07,1.6987324e-06,9.715557e-06,1.4901161e-07,1.54078e-05,0.0015451908,1.2099743e-05,0.43394768,0.0015035272
0.38810614,0.0,2.0235777e-05,7.3611736e-06,7.1525574e-07,0.000179708,0.00035881996,0.77646494,7.382035e-05,0.0014126599
0.002135694,0.0,1.3619661e-05,5.364418e-07,4.810095e-05,9.030104e-06,0.00017121434,0.5441162,2.3752451e-05,0.5640378
0.25671834,3.5762787e-07,3.9875507e-05,0.00021085143,6.1690807e-06,2.670288e-05,0.00248304,0.009849012,0.8083148,0.01895541
0.9803329,2.682209e-07,2.4437904e-06,2.2351742e-06,1.7881393e-07,6.2286854e-05,0.0002990365,3.260374e-05,0.00018078089,0.009217083
0.3383673,0.00010916591,0.00017338991,1.1324883e-06,0.0011382699,4.6670437e-05,0.00024068356,0.00015425682,0.0036762655,0.86816627
0.0013653338,0.0,1.758337e-05,0.00013303757,0.9949714,2.7447939e-05,0.007561505,0.00011345744,0.0074421167,0.00038173795
0.9926311,2.0861626e-07,5.00679e-06,1.1116266e-05,0.0,0.0001719892,0.00026711822,2.4080276e-05,7.44164e-05,0.0022124946
0.0007455051,0.30766487,0.05933374,0.0025614202,0.0010381043,0.00094538927,0.3271166,2.8192997e-05,0.4572906,0.014893085
0.99550784,5.9604645e-08,3.2782555e-07,0.00016865134,0.0,6.0379505e-05,0.00054359436,1.1622906e-06,0.00028067827,0.00018107891
0.009710848,6.645918e-06,1.6391277e-06,3.9488077e-05,1.8179417e-06,3.388524e-05,0.002613753,8.255243e-06,0.95726216,0.013442665
5.1945448e-05,0.9406576,0.01317203,0.9787368,0.00015380979,0.008797377,0.14325905,0.0,0.94295967,0.0006607771
0.9985889,0.0,0.0,3.5762787e-06,0.0,4.3570995e-05,0.00015315413,3.1888485e-06,4.0233135e-06,7.894635e-05
0.95516646,3.0100346e-06,5.1677227e-05,8.940697e-08,3.3974648e-06,0.00012090802,8.5413456e-05,7.453561e-05,4.684925e-05,0.10033479
0.99716234,0.0,8.940697e-07,6.3180923e-06,0.0,0.00010496378,9.813905e-05,7.137656e-05,1.0311604e-05,8.839369e-05
0.98519343,2.0861626e-07,5.364418e-07,1.2636185e-05,3.5762787e-07,4.172325e-05,0.000518322,3.0696392e-06,0.00027874112,0.0038249195
0.6494751,1.6987324e-05,7.5399876e-06,3.0755997e-05,6.264448e-05,4.3809414e-05,0.004195392,6.338954e-05,0.28809983,0.10719445
0.99454224,0.0,1.0102987e-05,2.1100044e-05,1.1920929e-07,0.00028282404,0.00024431944,8.034706e-05,4.2825937e-05,0.00057286024
0.9933778,0.0,2.3841858e-07,4.8577785e-06,2.3841858e-07,0.00014331937,0.0003746748,7.033348e-06,3.59118e-05,0.0004544556
4.6908855e-05,2.3841858e-06,1.1920929e-07,0.0,2.3245811e-06,0.0,0.0,0.0,0.0012165904,0.9990918
3.516674e-05,8.493662e-06,5.632639e-06,0.0,5.543232e-06,1.4901161e-07,1.4901161e-07,1.7881393e-07,0.00020611286,0.9990266
1.4483929e-05,0.97391075,0.00655064,0.8334795,2.1725893e-05,0.004345417,0.0044851005,0.0,0.021343946,0.0005360842
0.00024574995,0.94657636,0.012370467,1.3709068e-06,2.30968e-05,0.00035214424,0.0013712943,1.1920929e-07,0.010323882,0.02587843
2.604723e-05,3.874302e-07,0.0005710423,1.6897917e-05,0.99778706,3.784895e-06,0.001496762,1.4126301e-05,0.36804125,0.00014775991
0.99568504,0.0,8.6426735e-07,6.0796738e-06,2.9802322e-08,0.0002568066,0.00015816092,3.7819147e-05,1.13248825e-05,0.0003170073
9.089708e-05,3.784895e-06,1.49309635e-05,0.0002297759,1.2218952e-06,6.16312e-05,0.73134404,0.000104904175,0.9789675,9.301305e-05
0.99807,0.0,1.6391277e-06,1.7136335e-05,0.0,0.00020036101,0.0001502335,1.8447638e-05,8.583069e-06,8.72612e-05
4.261732e-06,0.0,0.00077968836,0.9974679,0.014629334,4.3094158e-05,0.00013965368,0.00014901161,0.0005813539,2.3841858e-05
8.940697e-06,1.5556812e-05,0.84398484,0.016336352,0.27717906,3.8325787e-05,0.0008908212,0.00020122528,0.9759717,2.4169683e-05
0.00017401576,0.00036394596,0.00035595894,1.3619661e-05,0.00041154027,3.0845404e-05,3.9607286e-05,1.0848045e-05,0.0057160556,0.98217785
3.516674e-05,8.493662e-06,5.632639e-06,0.0,5.543232e-06,1.4901161e-07,1.4901161e-07,1.7881393e-07,0.00020611286,0.9990266
0.0007827878,0.0,3.5762787e-07,0.99923235,3.2782555e-06,0.0002462268,0.0015569925,4.7683716e-07,2.9176474e-05,0.00015538931
0.9791571,0.0,1.3202429e-05,9.924173e-06,5.066395e-07,0.00064098835,0.00023081899,0.0010662377,6.0647726e-05,0.0031059384
0.050824493,0.0,1.5228987e-05,8.940697e-06,9.834766e-07,1.2278557e-05,0.0005160272,0.0007336736,0.9369637,0.0014693737
0.9938408,0.0,9.23872e-07,9.030104e-06,5.9604645e-08,0.00017827749,0.0006247461,5.310774e-05,1.1920929e-05,0.0007762611
0.9981173,0.0,1.1920929e-07,1.013279e-05,0.0,5.6684017e-05,0.00024604797,2.9206276e-06,1.0818243e-05,0.000111460686
0.00023162365,0.00031894445,5.477667e-05,0.00023970008,4.172325e-07,0.0009047091,0.9873948,7.650256e-05,0.0010762513,0.00035086274
0.046180457,7.18832e-05,0.0008293092,0.012303203,0.017454445,0.00015893579,0.0049681067,0.00059881806,0.5215806,0.047733307
0.002019167,1.5497208e-06,2.0563602e-05,7.891655e-05,1.1920929e-06,7.301569e-05,0.20363787,3.8444996e-05,0.9880272,6.476045e-05
0.99149656,0.0,1.937151e-06,2.3245811e-06,8.940697e-08,0.0005134344,0.00023883581,0.0004401505,4.887581e-06,0.0016394556
0.00064724684,0.23278388,0.30915362,0.986622,0.08298764,0.031267136,0.004158348,5.364418e-07,0.4289626,0.0010460615
0.0002539754,0.25979987,0.00080391765,0.9892427,0.00010341406,0.004846722,0.6515378,5.9604645e-08,0.61533207,0.0009509325
0.00014385581,0.00050085783,0.9332036,0.9711348,0.0003286004,7.5519085e-05,0.000117599964,3.5762787e-07,0.0015778542,3.0100346e-05
0.95416147,2.9802322e-07,0.00018522143,2.759695e-05,4.172325e-07,0.00034478307,0.00021731853,0.0013256967,0.0065538585,0.004884243
0.003406465,2.9802322e-08,1.2814999e-06,0.00017940998,1.4901161e-07,5.0365925e-06,0.0005787313,7.1823597e-06,0.98755807,0.00019869208
0.0056267083,1.5944242e-05,3.7044287e-05,6.225705e-05,1.1920929e-06,2.9236078e-05,0.0024845004,1.3232231e-05,0.9737083,0.0017506778
0.0143760145,0.0,8.106232e-06,3.9935112e-05,2.9802322e-07,9.447336e-06,0.0006542504,5.5104494e-05,0.96933544,0.00058048964
0.99642605,0.0,2.682209e-07,4.798174e-06,5.9604645e-08,9.2059374e-05,0.0002271533,4.1127205e-06,8.672476e-06,0.0004995167
0.0020844638,0.49642,0.0055043697,0.98198485,0.0005900264,0.022539198,0.40839532,2.9802322e-08,0.7215603,0.000867486
4.1127205e-06,0.021901071,0.021159828,0.0008713007,0.0016767383,0.0012337863,0.28373867,2.4735928e-05,0.9819678,0.00030595064
0.19741455,1.7881393e-07,7.4505806e-07,8.7320805e-06,2.9802322e-08,8.85129e-06,0.00080010295,5.1259995e-06,0.73826736,0.0012111962
0.9979054,0.0,2.9802322e-08,1.5497208e-06,0.0,6.6280365e-05,0.00016459823,3.3974648e-06,1.1622906e-06,0.0002079606
1.0818243e-05,5.9604645e-08,0.00020062923,0.99943006,0.00012814999,9.000301e-06,0.00024816394,1.7881393e-07,0.078724265,1.0669231e-05
7.402897e-05,4.145503e-05,0.15976423,0.9986331,0.023878127,0.00023648143,0.00075915456,3.5762787e-07,0.0039659142,2.6375055e-05
1.0162592e-05,0.9560861,0.009315699,1.013279e-06,3.0696392e-06,0.0007330477,0.0070105195,0.0,0.00077468157,0.0015102625
0.0016863048,8.046627e-07,0.000736475,7.072091e-05,5.066395e-07,1.5169382e-05,0.00024351478,1.9550323e-05,0.9867425,1.4483929e-05
0.00012129545,0.8584765,0.007443279,0.002170533,8.663535e-05,0.0150517225,0.19549367,6.109476e-06,0.70580757,0.0049004555
0.0007723868,0.9599596,0.0025902092,2.8312206e-05,1.847744e-06,0.0002309382,0.00028318167,0.0,0.043104976,0.039063603
0.9906493,1.4901161e-07,1.9967556e-06,5.0395727e-05,8.940697e-08,0.00018492341,0.0003091097,1.8149614e-05,0.0003463924,0.0008762777
3.516674e-05,8.493662e-06,5.632639e-06,0.0,5.543232e-06,1.4901161e-07,1.4901161e-07,1.7881393e-07,0.00020611286,0.9990266
0.0004464984,0.00020450354,9.179115e-06,5.9604645e-08,4.044175e-05,5.9604645e-07,2.9802322e-06,4.172325e-07,0.004300654,0.9924092
0.0005558729,0.0,0.000104397535,1.5765429e-05,5.9604645e-08,1.1920929e-06,0.00024536252,6.273389e-05,0.9962719,1.847744e-06
0.00054743886,2.8908253e-06,1.2218952e-05,0.0,0.0011285543,8.6426735e-07,2.0563602e-06,4.3809414e-06,0.00077980757,0.9944432
0.9974457,0.0,8.940697e-08,1.3709068e-06,0.0,9.3340874e-05,0.00012359023,6.0796738e-06,1.6391277e-06,0.00017979741
0.99668884,8.940697e-08,7.748604e-07,1.1861324e-05,0.0,0.00012597442,0.00023508072,6.3180923e-06,1.3381243e-05,0.0005092621
0.0028767884,0.0,1.2040138e-05,3.0249357e-05,4.7683716e-07,1.5497208e-06,0.00026783347,0.00012487173,0.98918587,8.961558e-05
0.0003117025,0.8966798,0.020129323,0.00013288856,1.4603138e-05,0.00049456954,0.0019667447,2.9802322e-08,0.0044074953,0.022438109
0.0023370385,0.0,0.0015078485,0.0001527667,2.2053719e-06,1.3500452e-05,0.00082319975,0.08621845,0.9890026,3.167987e-05
1.9609928e-05,0.02996996,0.115250856,0.0054998696,0.02271989,0.9830345,0.065975934,0.00017210841,0.63182944,0.0015292466
0.00020739436,0.016412675,0.033518642,0.0016185045,2.9593706e-05,0.98233056,0.016432345,0.0005339384,0.20422697,0.001145333
0.0033008158,0.0,4.0233135e-06,7.560849e-05,1.4901161e-07,3.3974648e-06,0.00044566393,1.4841557e-05,0.9868492,0.00012770295
0.9272332,9.1671944e-05,0.00014361739,5.364418e-07,1.9073486e-06,3.3646822e-05,0.00015434623,6.7949295e-06,0.00022023916,0.0871996
0.1645635,8.0257654e-05,0.9748957,0.0013424158,4.5895576e-06,0.00075116754,0.00015038252,0.0019373,0.0023458004,0.0006824732
0.99751556,0.0,5.9604645e-08,1.5437603e-05,0.0,2.9414892e-05,0.0003053248,1.5497208e-06,4.541874e-05,0.0001476109
0.29111952,1.5288591e-05,6.4074993e-06,0.0010001659,1.1920929e-05,6.633997e-05,0.0028633177,0.00013202429,0.40690473,0.121872514
4.440546e-06,0.9687952,0.045297325,0.00067183375,0.0013357997,0.0013394356,0.02538699,5.9604645e-08,0.75746477,0.0056800544
0.00018072128,0.0,0.0,0.99811316,5.662441e-07,1.3232231e-05,0.00037401915,4.7683716e-07,2.0086765e-05,7.659197e-06
5.6535006e-05,0.017876118,0.69130147,0.13498995,0.16319168,0.0006532073,0.0065953135,3.1232834e-05,0.9303256,0.00031411648
0.9972807,0.0,1.1920929e-07,9.357929e-06,0.0,7.492304e-05,0.00022050738,5.453825e-06,5.3346157e-06,0.00028276443
0.0068225563,0.00021991134,0.00017106533,0.00043407083,4.529953e-06,0.9666651,0.017877162,1.7464161e-05,0.0010362566,8.574128e-05
0.98523366,5.9604645e-08,3.9041042e-06,2.9057264e-05,5.9604645e-08,0.00018113852,0.00037565827,0.00010433793,0.00013023615,0.003441155
5.841255e-06,6.580353e-05,0.0009444356,0.000264287,2.8401613e-05,0.979233,0.010263443,0.00016203523,0.8395606,0.00026521087
5.888939e-05,2.0861626e-07,1.1026859e-06,0.99851227,2.2053719e-06,0.00045135617,0.00064763427,2.9802322e-08,0.00047442317,0.00012394786
0.00016993284,0.96763766,0.020588309,0.9879,0.0015916228,0.007833451,0.06903285,0.0,0.78292143,0.0012207031
0.00011512637,1.552701e-05,3.412366e-05,0.0007098615,1.1563301e-05,0.99510944,0.0042082965,2.026558e-06,0.0001372993,2.2262335e-05
0.04424888,0.0,7.778406e-06,9.3728304e-05,1.1920929e-07,8.612871e-06,0.00039091706,3.8146973e-05,0.9188349,0.00025886297
0.02364418,0.0,6.2584877e-07,2.861023e-05,8.940697e-08,2.2053719e-06,0.0003761351,8.314848e-06,0.95406777,0.00012364984
0.24494204,0.0,0.0010687411,0.004165828,1.0222197e-05,2.2560358e-05,0.0005197227,0.0030988455,0.6604294,1.12354755e-05
0.0037845671,0.0006135404,0.012869269,0.00040498376,0.00020080805,4.3958426e-05,0.00082060695,7.3611736e-05,0.93829894,0.002163887
0.93999434,5.9604645e-08,7.8350306e-05,3.4570694e-06,1.6391277e-06,0.00044220686,0.00043061376,0.005246818,0.00021454692,0.009708166
0.932544,1.1920929e-06,6.917119e-05,0.004473716,1.3560057e-05,0.16841486,0.0013142526,0.0001526773,6.848574e-05,0.00096458197
0.40042108,8.940697e-08,8.395314e-05,2.0503998e-05,3.2782555e-05,0.0013554096,0.0049842894,0.6017076,0.0008716583,0.058253855
0.99469316,2.9802322e-08,5.364418e-07,2.5182962e-05,0.0,0.00011122227,0.0003478229,6.7055225e-06,3.0130148e-05,0.0009402931
0.00011536479,8.821487e-06,0.12174332,0.00062325597,2.5719404e-05,4.017353e-05,0.0008340776,0.0003617704,0.995522,8.821487e-06
1.4722347e-05,0.9827883,0.0058564246,0.0040865242,6.7055225e-06,0.0007945597,0.0052634776,2.9802322e-08,0.8830254,0.01095891
4.8279762e-05,0.0334388,0.6696607,0.8985988,0.865497,0.0042984486,0.0076740384,9.23872e-07,0.006521255,0.0012673736
2.56598e-05,0.9782889,0.010630816,4.6491623e-06,1.7881393e-06,0.0035423338,0.005704969,1.7881393e-07,0.013635784,0.002529502
0.99561715,2.9802322e-08,9.23872e-07,2.5480986e-05,0.0,0.00024196506,0.00062969327,2.2143126e-05,4.0620565e-05,0.0002449751
0.00078195333,0.27338657,0.0007721782,0.0018267035,1.0609627e-05,0.0002706647,0.004216701,1.847744e-06,0.9067497,0.07078689
0.01044023,0.0,1.1920929e-07,3.2782555e-06,0.0,1.937151e-06,0.0007968843,7.1525574e-07,0.9892926,6.467104e-06
7.015467e-05,0.0007430911,2.3037195e-05,0.00010806322,1.9967556e-06,0.00027528405,0.98362756,4.0233135e-06,0.0006287098,0.00070372224
0.2595073,5.9604645e-08,5.760789e-05,3.20971e-05,2.4437904e-06,2.399087e-05,0.00086432695,0.0019702315,0.7944963,0.0020667017
0.005463898,0.0005427599,0.0014397204,6.0796738e-06,0.0023233593,4.068017e-05,0.00034734607,0.000118523836,0.0026704967,0.929989
0.99454653,0.0,2.0861626e-06,1.6570091e-05,2.9802322e-08,0.00016775727,0.00018510222,4.2766333e-05,2.7805567e-05,0.0007939935
