0,1,2,3,4,5,6,7,8,9
0.9903593,0.0,6.2584877e-07,1.1622906e-06,8.940697e-08,0.000939697,0.0007033348,1.3411045e-06,0.001195997,0.0022649765
0.9805596,0.0,4.7683716e-07,8.6426735e-07,0.0,0.00011956692,0.00032675266,0.008094579,1.0579824e-05,0.0009261966
1.6093254e-06,5.066395e-07,0.0027083158,0.0010218024,0.9861521,0.9999882,0.0032058358,2.2053719e-06,0.0026464164,4.4107437e-06
0.0,1.0311604e-05,1.1920929e-07,0.99999595,1.7881393e-07,0.0015713573,0.91862607,2.9802322e-08,2.4110079e-05,6.2584877e-07
0.00034928322,0.0,7.4505806e-07,0.999974,1.1920929e-07,0.00050988793,0.0005481243,1.4901161e-07,0.00050213933,1.0728836e-06
0.9891414,0.0,2.9802322e-07,0.0,0.0,2.0325184e-05,0.0001116097,0.003240049,7.3313713e-06,0.00015255809
0.003751874,0.0,6.198883e-06,1.4990568e-05,4.7683716e-07,0.0007263422,0.0021237433,1.7881393e-07,0.9927227,0.00047788024
0.0,0.0,8.940697e-06,0.9999999,0.9992007,0.0002515316,0.00023496151,2.0861626e-07,1.5556812e-05,0.0
2.3841858e-07,0.0,3.2782555e-07,0.7714907,1.1920929e-07,5.0663948e-05,0.0010073185,7.95722e-06,0.999919,1.1920929e-07
7.1823597e-06,2.5331974e-06,3.33786e-06,9.23872e-07,8.7320805e-06,0.0034558773,0.99959815,1.66893e-05,0.0007415712,0.0011702776
0.00018957257,0.0,0.41142106,1.937151e-05,6.1690807e-06,0.00034603477,0.011347562,3.2663345e-05,0.9878057,6.464124e-05
0.0034338832,0.0,1.2665987e-05,8.940697e-08,8.940697e-07,2.104044e-05,0.0008226335,7.748604e-07,0.99864376,2.3841858e-07
6.556511e-07,0.2430869,0.00017404556,0.9958223,5.9604645e-07,0.0037791133,0.0021325946,0.0,0.9451422,9.357929e-06
0.00010216236,0.9471216,0.0069063604,6.636977e-05,3.0517578e-05,0.0007778406,0.0007621348,1.2218952e-06,0.010051191,0.041595608
0.10715774,0.0,2.8699636e-05,8.34465e-07,2.9802322e-08,0.0003453493,0.0016058981,7.861853e-05,0.95934546,0.00010704994
0.0055719316,0.011396289,0.0019271374,0.00016218424,5.5998564e-05,0.0015356839,0.627412,3.388524e-05,0.6184305,0.0042711496
2.8312206e-06,0.0,3.6656857e-06,0.9999852,6.4074993e-06,0.00039991736,0.005866289,5.9604645e-08,0.409669,1.7881393e-07
0.985965,2.9802322e-08,9.745359e-06,1.5795231e-06,1.4901161e-07,0.0002463162,0.00016450882,6.4373016e-06,0.00031843781,0.004701346
6.854534e-07,0.0015170872,0.43332,4.5269728e-05,0.0030337572,0.0074723363,0.78817797,0.0009507835,0.8819399,0.00024023652
1.257658e-05,2.9802322e-07,4.4703484e-07,9.387732e-06,1.1026859e-06,0.00016015768,0.77373767,0.00023472309,0.9483131,0.0004504621
0.99833065,0.0,5.364418e-07,5.9604645e-08,0.0,0.00037184358,0.00029844046,9.5665455e-06,2.208352e-05,0.0004068613
0.012638539,2.5629997e-06,0.9757004,0.00016716123,2.3841858e-07,0.0006599128,0.0019389987,0.0001938641,0.0001398325,0.00011789799
0.99878573,0.0,8.940697e-08,2.9802322e-08,0.0,0.00012469292,0.00016266108,8.6426735e-07,2.9832125e-05,0.00035485625
0.01483956,6.8843365e-06,0.00079500675,0.10470277,3.8146973e-06,0.0015667975,0.003320694,4.4196844e-05,0.9327915,0.0021303892
0.0014075041,0.0,1.7881393e-06,5.841255e-06,1.7881393e-07,0.00031661987,0.0012362003,2.6196241e-05,0.9975476,0.0001744628
3.4570694e-06,0.0007863045,0.466739,2.5302172e-05,0.0005463064,0.9596049,0.035817057,0.007401198,0.026816905,0.0036563277
0.00178653,0.0009391904,0.00028175116,1.7881393e-07,1.1920929e-07,0.0013186932,0.54410625,0.00017756224,0.00028535724,0.0033016503
0.8284675,0.0,4.917383e-06,0.0,0.0,9.596348e-06,0.00018751621,0.5076366,2.6196241e-05,0.0003694892
0.03905627,0.0,4.917383e-06,2.220273e-05,8.940697e-08,1.4036894e-05,0.0003143251,0.9816369,0.005285293,9.2089176e-05
2.8908253e-06,0.99440277,8.696318e-05,0.33767793,1.7285347e-06,0.0057991147,0.00924179,0.0,0.9959992,2.1100044e-05
3.2812357e-05,6.645918e-06,8.940697e-08,4.4703484e-07,1.1026859e-06,0.0014204681,0.9986491,2.3841858e-07,0.00088071823,0.0019127429
1.1384487e-05,9.030104e-06,2.9802322e-07,3.4570694e-06,1.1920929e-07,0.0022221506,0.9977037,1.013279e-06,0.025380671,0.00043469667
0.007550955,1.1622906e-06,2.1457672e-06,2.3841858e-06,5.90086e-06,0.00055906177,0.98875403,1.1920929e-07,5.5283308e-05,5.0485134e-05
2.3841858e-07,2.9802322e-08,4.6491623e-06,0.99999917,0.00010749698,0.0005133152,0.0058488846,3.4868717e-06,6.8217516e-05,1.4901161e-07
0.84421664,0.0,1.5497208e-06,2.0861626e-07,3.2782555e-07,0.00028786063,0.0006443858,1.9162893e-05,0.33017975,0.00064358115
0.9987347,2.9802322e-08,9.23872e-07,0.0,0.0,0.00025251508,4.2706728e-05,2.9802322e-07,9.030104e-06,1.2904406e-05
0.9551023,0.0,9.23872e-07,8.940697e-08,0.0,0.0010988414,0.00090676546,3.874302e-07,0.07548699,0.0024171472
0.99872684,0.0,8.940697e-08,0.0,0.0,9.769201e-05,0.0002065301,3.5762787e-07,2.026558e-05,2.0802021e-05
0.9863882,0.0,1.013279e-06,1.1920929e-07,0.0,0.00055387616,0.0005853176,6.735325e-06,8.7440014e-05,0.01990071
0.00010544062,0.0,4.172325e-07,1.3589859e-05,0.0,0.00010848045,0.0008671284,7.4505806e-07,0.9997999,8.6426735e-06
1.4603138e-06,1.1920929e-07,0.987468,0.00037705898,9.420514e-05,0.0002772808,0.0038467348,0.00011122227,0.9963529,2.413988e-06
0.8756322,0.0,7.1525574e-07,2.95043e-06,8.046627e-06,0.0011879206,0.001637429,1.7881393e-07,0.19086856,0.00067588687
1.1026859e-06,6.854534e-07,0.003558457,9.480119e-05,7.4505806e-06,0.9999987,0.00444749,5.9604645e-05,0.095757276,3.784895e-06
3.5762787e-07,0.99967265,1.9460917e-05,0.0032336414,8.940697e-06,0.0031858683,3.5345554e-05,0.0,0.98842,6.8843365e-06
0.00038975477,5.9604645e-08,5.751848e-06,5.8233738e-05,8.940697e-08,0.0002143085,0.013926834,1.1473894e-05,0.9996111,2.4229288e-05
0.004274696,0.0,1.7881393e-06,1.0728836e-06,8.940697e-08,5.6624413e-06,8.08835e-05,0.997635,0.004227668,0.00021287799
0.119545996,0.0,9.724498e-05,2.682209e-07,5.9604645e-07,0.0003581047,0.00095039606,8.314848e-06,0.9673168,8.100271e-05
0.0045205355,1.5795231e-06,0.00011783838,0.010801345,0.00020098686,0.000999093,0.0043489635,0.00015372038,0.97864634,0.0014547706
1.963973e-05,0.99950576,6.470084e-05,0.0003427863,1.4603138e-05,0.0037298799,3.734231e-05,0.0,0.37233496,0.0009796619
0.9990891,0.0,0.0,0.0,0.0,0.00014609098,8.416176e-05,2.9802322e-07,5.6236982e-05,1.3291836e-05
0.00043782592,5.066395e-07,0.0011173189,3.9041042e-06,2.2053719e-06,0.9518848,0.016772687,0.0003235042,0.0028661788,0.0001372397
7.56979e-06,0.9980027,6.431341e-05,1.4424324e-05,4.440546e-06,0.0021980703,0.000274539,5.9604645e-07,0.008066207,0.0013087094
1.1920929e-06,4.6789646e-06,0.00078082085,6.735325e-06,1.8209219e-05,0.9999999,0.0057545006,3.606081e-06,0.56993353,1.0609627e-05
0.23776075,0.0,1.0430813e-06,9.23872e-07,0.0,0.00032955408,0.00032770634,0.0036027431,0.7834912,0.0023808181
0.98077047,1.1920929e-07,2.7090311e-05,6.2584877e-07,3.1590462e-06,0.000420779,0.0008198619,3.7550926e-06,0.0022280216,0.0031335056
8.940697e-07,0.9999149,9.685755e-06,0.00048840046,0.00016874075,0.009984195,6.0081482e-05,0.0,0.13748702,0.00025099516
0.9721765,0.0,1.2218952e-06,6.854534e-07,0.0,0.00080633163,0.00088867545,3.427267e-05,0.033130765,0.00535208
4.798174e-06,0.99055135,0.014808387,0.00010487437,2.413988e-06,0.012751788,0.0041956604,6.943941e-06,0.0010382533,0.0028533936
0.9775285,0.0,1.552701e-05,1.4901161e-07,1.4901161e-07,0.00044307113,0.0005406141,0.00027653575,0.0037917197,0.0027456582
1.3381243e-05,0.99941885,1.6987324e-05,0.00023889542,2.5391579e-05,0.0025220811,0.00019904971,0.0,0.12176517,0.0006620288
0.9985375,0.0,1.3709068e-06,0.0,0.0,0.00020581484,0.00013542175,2.7060509e-05,5.4836273e-05,4.7296286e-05
0.024999648,6.2584877e-07,2.1636486e-05,6.2584877e-07,1.66893e-06,0.9755685,0.005482316,4.61936e-06,0.42857438,0.00045379996
2.7388334e-05,1.9967556e-06,0.003259033,0.0003322065,0.99294937,0.9996892,0.0032059848,1.9282103e-05,0.0030410588,6.0260296e-05
1.4215708e-05,5.096197e-06,0.0,8.940697e-08,0.0,1.3113022e-05,0.00037392974,0.0,0.18625447,0.9835285
0.093290925,6.854534e-07,7.131696e-05,1.0848045e-05,1.4901161e-06,0.00023299456,0.0054775476,8.6426735e-07,0.56354505,0.06208107
0.9969657,0.0,2.0861626e-06,1.1920929e-07,0.0,0.00021511316,0.00023570657,2.2560358e-05,8.288026e-05,0.00015339255
0.9967142,0.0,8.6426735e-07,2.9802322e-08,0.0,0.00031164289,0.00013530254,0.0008979738,5.620718e-05,0.00012731552
1.6093254e-06,0.0,0.00025612116,1.2516975e-06,0.010953754,2.0563602e-06,0.0016505122,2.3245811e-06,0.99991935,2.4050474e-05
0.00096702576,2.682209e-07,0.0016138256,1.1950731e-05,1.6391277e-06,0.00045847893,0.002963543,0.53474545,0.78819335,0.0010287166
0.0013901591,0.0,0.0,0.0,0.0,1.4901161e-07,1.8447638e-05,0.99976254,7.390976e-06,1.3113022e-06
0.21243206,0.0,7.1525574e-07,3.5762787e-06,0.0,0.00036543608,0.00024160743,1.7881393e-07,0.8766228,0.00059968233
0.9969362,0.0,2.9802322e-08,2.9802322e-07,0.0,0.00068992376,0.0006993115,7.3611736e-06,0.00014957786,0.0008033216
4.976988e-06,0.0,4.351139e-06,0.9999879,5.2452087e-06,0.00032141805,0.0015212297,8.046627e-07,0.0007337928,2.3841858e-07
1.9848347e-05,0.0,2.9802322e-08,0.99998647,0.0,0.00033453107,0.00061810017,5.9604645e-08,9.536743e-05,2.3841858e-07
7.390976e-06,0.0,3.8444996e-06,0.99999714,8.940697e-07,0.00017568469,0.0005090833,0.0,6.109476e-05,0.0
0.00026464462,2.9802322e-08,5.9604645e-07,3.2424927e-05,2.3841858e-07,0.0005606413,0.0075236857,2.2053719e-06,0.99850214,0.0003785193
0.30178866,0.0,1.5795231e-06,1.4901161e-06,2.9802322e-08,0.00023922324,0.00052174926,0.8820813,0.00021657348,0.0040360093
0.9793874,0.0,2.69413e-05,1.7881393e-07,8.940697e-08,0.0003979206,0.0018691123,0.0003722012,0.00021460652,0.0043111145
0.9016312,0.0,1.0728836e-06,2.9802322e-08,0.0,0.000105291605,0.00023451447,0.0014160872,0.023625761,0.0001372397
0.9247328,5.9604645e-08,2.0861626e-07,0.011413991,1.9967556e-06,0.0015700758,0.0007581115,1.6599894e-05,0.0014416277,0.00043320656
0.99734116,0.0,6.9737434e-06,8.940697e-08,0.0,0.00046607852,0.00047907233,0.00017538667,8.067489e-05,0.00019878149
0.0010581017,0.0,2.1755695e-06,4.6789646e-06,0.99849266,5.069375e-05,0.00068444014,3.5762787e-07,0.00048616529,8.940697e-06
0.9955076,0.0,2.1785498e-05,5.9604645e-08,5.9604645e-08,0.00039499998,0.0008509755,8.136034e-06,0.00042432547,1.8179417e-05
0.9977988,0.0,2.9802322e-08,1.7881393e-07,0.0,0.00061553717,0.00040501356,1.66893e-06,9.536743e-05,0.00031021237
9.3996525e-05,0.0,4.8458576e-05,0.00020003319,2.7537346e-05,3.516674e-05,0.00096696615,0.00048670173,0.99930775,1.758337e-06
0.9931493,0.0,3.6656857e-06,0.0,2.9802322e-08,0.00025969744,0.0006624758,0.00026667118,3.120303e-05,0.00018176436
3.3080578e-06,0.0,0.0001628995,3.6925077e-05,1.3411045e-06,0.8342068,0.0028879344,0.000120192766,0.9810797,1.1861324e-05
2.9802322e-08,2.3841858e-07,7.259846e-05,1.0222197e-05,2.0563602e-06,0.00019109249,0.0024088323,3.5762787e-07,0.0025515556,0.99813706
2.7120113e-06,0.0,2.3841858e-07,0.999997,4.7683716e-07,0.0007302165,0.0009585023,0.0,0.004101187,2.9802322e-08
6.556511e-07,0.99956524,0.00013720989,0.0045729578,0.073829144,0.0133398175,2.476573e-05,0.0,0.35182467,8.1032515e-05
0.053938955,8.940697e-08,9.6827745e-05,2.2351742e-06,1.5974045e-05,0.00031083822,0.00595665,3.3169985e-05,0.93502057,0.000857085
0.9771103,0.0,2.3841858e-07,3.874302e-07,0.0,0.00030863285,0.0003658235,1.5288591e-05,0.03284812,0.00037574768
1.8775463e-06,0.0,8.940697e-08,0.0,0.0,5.9604645e-08,0.000121325254,0.0,1.0281801e-05,0.9999112
0.63718605,0.0,2.5331974e-06,7.1525574e-07,5.9604645e-08,0.00011476874,0.0004454255,0.34041768,0.001116693,0.00997299
2.3841858e-07,0.0009562969,0.85034186,0.000331223,0.0019077659,0.9999998,0.0055478513,0.000361979,0.07257381,3.6358833e-06
0.98737895,0.0,2.9802322e-08,1.1920929e-07,0.0,5.4240227e-05,0.00010314584,1.4901161e-07,0.018171877,1.3053417e-05
2.6196241e-05,2.8759241e-05,0.9311232,5.698204e-05,0.0009638071,0.00079002976,0.07126078,1.1175871e-05,0.99548113,1.5556812e-05
0.9075576,0.0,1.1086464e-05,5.155802e-06,5.9604645e-08,0.00020033121,0.00100559,0.03728813,0.00077179074,0.0024977028
1.1920929e-07,0.00055477023,6.2584877e-07,0.9999848,1.4305115e-06,0.015484661,0.443487,1.4901161e-07,0.07864308,8.910894e-06
2.3633242e-05,8.940697e-08,4.4584274e-05,3.2782555e-07,8.940697e-07,7.122755e-06,0.00018778443,0.0031487346,0.0012390912,0.9755574
0.99473584,0.0,1.0550022e-05,1.7881393e-07,1.7881393e-07,0.00027266145,0.00041279197,6.118417e-05,0.0010514855,9.185076e-05
0.98774487,0.0,8.34465e-07,2.0861626e-06,1.2516975e-06,0.0013717413,0.0021615922,8.6426735e-07,0.0037433505,0.0008672774
3.272295e-05,0.0,4.74751e-05,0.00018805265,0.00095915794,2.1994114e-05,0.0023149848,2.8312206e-06,0.9997512,4.2945147e-05
0.009412408,0.0,1.1026859e-06,1.8179417e-05,2.0325184e-05,0.0005826652,0.00056156516,1.013279e-06,0.18640491,0.7218921
0.9888699,0.0,2.8312206e-06,3.0994415e-06,2.0861626e-07,0.0010263622,0.0005069375,2.4229288e-05,0.0002090931,0.00024795532
6.854534e-07,0.9651519,0.0011108518,0.9939493,1.7672777e-05,0.067615926,0.012807488,3.5762787e-07,0.13897496,0.00027355552
2.8908253e-06,1.2814999e-06,0.00027802587,3.144145e-05,1.0728836e-06,0.999999,0.0018032193,0.0020034015,0.0017225146,4.4733286e-05
1.0341406e-05,4.6789646e-06,0.04393959,0.9998787,0.0012201667,0.00150612,0.0017203391,1.4901161e-07,0.16918182,0.00030079484
0.9569544,0.0,9.5665455e-06,1.463294e-05,1.1920929e-07,0.0017665923,0.0018064678,1.5079975e-05,0.019242167,0.008718699
2.5063753e-05,0.0,1.8775463e-06,0.9999916,7.748604e-07,0.0007313192,0.0020191073,4.4703484e-07,0.00041666627,2.682209e-07
0.9868444,0.0,1.1920929e-07,2.9802322e-07,0.0,8.881092e-05,0.00017085671,0.00057685375,0.00025051832,8.973479e-05
0.0001988709,8.940697e-08,0.0012817085,0.9277786,0.998567,0.0002734959,0.0011773407,1.758337e-06,0.003048271,1.013279e-06
5.9604645e-08,0.9977128,2.592802e-06,0.48773342,1.1920929e-07,0.0010851324,0.0005310774,0.0,0.9983628,5.9604645e-06
0.9958621,0.0,2.0861626e-07,2.9802322e-07,0.0,0.001103282,0.0019150376,5.9604645e-08,0.0004785657,0.00034162402
2.9802322e-07,6.145239e-05,0.9719808,3.8802624e-05,5.841255e-06,0.00011843443,0.004131168,2.592802e-06,0.9903629,7.867813e-06
0.94017655,2.9802322e-08,0.012618184,1.1920929e-06,2.0861626e-06,0.0014909804,0.0016207695,9.924173e-05,0.0008085668,0.004223436
5.6922436e-06,2.3841858e-07,1.1086464e-05,8.85129e-06,1.1175871e-05,0.97506535,0.023782521,8.821487e-06,0.86749846,0.00013047457
4.827976e-06,2.887845e-05,0.009642899,0.00013756752,7.492304e-05,0.99999976,0.004656136,1.8507242e-05,0.039135337,7.1823597e-06
5.51939e-05,4.5001507e-06,0.0003785789,0.99995625,2.592802e-05,0.0016640425,0.0599173,3.9339066e-06,0.00095522404,3.784895e-06
2.8908253e-06,0.0,2.5629997e-06,5.9604645e-08,5.9604645e-08,5.3942204e-06,9.6172094e-05,0.9998082,0.0028837025,0.0001912415
0.9955621,0.0,2.9802322e-08,2.9802322e-08,5.9604645e-08,0.0001809895,0.0003040433,3.2782555e-07,0.00074607134,0.00052791834
0.9977296,0.0,5.9604645e-08,8.940697e-08,2.9802322e-08,0.00048705935,0.00022569299,7.5399876e-06,0.00014132261,0.00031101704
0.9990864,0.0,2.9802322e-07,0.0,0.0,0.0001552105,0.00022250414,7.867813e-06,3.1083822e-05,0.000161767
0.17814884,0.0,1.0728836e-06,5.841255e-06,0.0,0.0005708337,0.00034934282,7.504225e-05,0.90325046,0.0014336109
0.3996867,6.6161156e-06,2.95043e-06,1.5377998e-05,2.95043e-06,0.00061035156,0.0030721426,8.34465e-07,0.15739024,0.033675194
1.758337e-06,0.0,8.940697e-08,0.0,0.0,5.9604645e-08,0.000121444464,0.0,1.0251999e-05,0.9999112
0.0005823672,1.3679266e-05,0.0044602454,9.050965e-05,4.0233135e-06,0.0004427433,0.0039182305,1.4305115e-06,0.3364513,0.34833097
6.4074993e-06,0.89660496,0.011490703,0.0021033883,0.0019454658,0.002914071,0.0004387498,4.7504902e-05,0.0016026497,0.2513631
0.0031064749,0.0,2.1755695e-06,2.7418137e-06,1.847744e-06,0.00043976307,0.0028585494,3.3676624e-06,0.9901179,0.0007584095
0.96176183,0.0,2.3841858e-05,1.1324883e-06,2.3841858e-07,0.002569884,0.0013718009,1.6987324e-05,0.008519292,0.01926303
6.467104e-06,0.99839056,0.00013783574,0.00019583106,0.00015002489,0.01928696,0.0010934174,1.7881393e-07,0.071288556,0.00028580427
0.0019601882,2.9802322e-08,1.04010105e-05,3.1888485e-06,5.9604645e-08,0.0002606809,0.0022653341,2.592802e-06,0.9966958,0.00041297078
0.004201621,3.0994415e-06,1.0162592e-05,2.732873e-05,0.00022146106,0.009347618,0.9106771,0.0001885593,0.0026766658,0.0074159205
0.96267545,0.0,1.4901161e-07,0.0,0.0,0.00014412403,0.00013956428,0.0,0.019411713,0.0009576082
5.9604645e-08,0.9996276,6.377697e-05,0.40122682,0.00075396895,0.006381929,6.517768e-05,0.0,0.0076737404,0.00012204051
4.172325e-07,4.2021275e-06,0.00018832088,0.99997926,0.009936392,0.00050520897,0.0035910904,1.8775463e-06,0.00036132336,2.5212765e-05
0.6461099,1.4901161e-07,8.314848e-06,0.05430171,0.00015306473,0.0029513836,0.0024634004,1.4901161e-06,0.035701722,0.0032411218
0.71766937,2.0861626e-07,8.5532665e-06,4.7683716e-07,0.0,0.00031900406,0.0005826354,3.1590462e-06,0.56769675,0.0032922924
0.16863227,1.1920929e-07,0.0029234886,2.2143126e-05,5.5730343e-06,0.0006990433,0.004091531,4.142523e-06,0.8074802,0.00013431907
1.2487173e-05,0.0,1.3709068e-06,8.136034e-06,0.0,5.00679e-06,0.00014743209,4.9471855e-06,0.9999254,3.7550926e-06
0.071588784,5.9604645e-08,3.8444996e-06,1.1622906e-06,2.9802322e-07,0.00075128675,0.0035920143,3.71933e-05,0.93395627,0.0011424422
0.928954,0.0,2.682209e-07,5.9604645e-08,0.0,0.0007368028,0.0010315478,0.00034448504,0.026934415,8.031726e-05
0.98607314,0.0,1.0222197e-05,3.963709e-06,8.940697e-08,0.0027713478,0.0013614893,1.2218952e-05,0.0023728013,0.0017913878
0.9994334,0.0,5.9604645e-08,0.0,0.0,0.00012382865,0.00015479326,1.013279e-06,1.7881393e-05,2.3186207e-05
1.4007092e-06,2.0861626e-07,8.940697e-08,0.9999931,2.3841858e-07,0.0033991635,0.014192104,2.682209e-07,0.00010496378,8.940697e-08
0.44204,4.4703484e-07,1.3411045e-06,1.9669533e-06,2.9802322e-08,0.0017616749,0.0014155209,1.6987324e-06,0.7189275,0.0023469925
0.98273766,0.0,2.3543835e-06,0.0,0.0,0.0001232624,0.0003427863,0.0005800128,0.0007363558,0.0009992123
0.99840426,0.0,7.1525574e-07,1.1920929e-07,0.0,0.0004016459,0.0006593168,7.1823597e-06,1.9222498e-05,0.00019192696
0.00332582,5.9604645e-08,2.3424625e-05,2.4735928e-06,8.940697e-08,0.00055089593,0.004726559,9.23872e-07,0.99247134,0.0018620193
0.98899335,0.0,1.4126301e-05,9.536743e-07,2.9802322e-08,0.0023911893,0.00071915984,2.2053719e-05,0.002589643,0.00054222345
0.68401784,2.9802322e-08,4.7773123e-05,2.3841858e-06,2.9802322e-07,0.0020428598,0.0013487637,9.208918e-06,0.1279366,0.011854112
0.0033756196,0.8042519,0.002434194,3.1769276e-05,3.835559e-05,0.0047002435,0.003476411,2.1874905e-05,0.0021377504,0.065654606
0.0007417798,1.4007092e-06,5.9604645e-08,4.082918e-06,8.940697e-08,0.000836432,0.9956967,3.33488e-05,7.3611736e-06,0.0002860725
0.003887415,3.3318996e-05,0.0016202033,0.00014361739,9.685755e-06,0.9843218,0.060354054,0.00011962652,0.22525972,0.003481388
0.00018149614,0.0,3.4570694e-06,2.8252602e-05,2.3841858e-07,0.00075516105,0.0025928617,2.3841858e-07,0.99729264,0.0005893111
0.6627836,9.23872e-07,1.3500452e-05,1.1920929e-07,2.0861626e-07,6.303191e-05,0.00021377206,5.3048134e-06,3.4689903e-05,0.7349697
1.3411045e-06,0.0,0.000100791454,2.515316e-05,0.07156357,1.6242266e-05,0.0013647676,0.8200424,0.42006582,0.0007248223
1.8775463e-06,0.98575723,0.000595659,0.021107823,0.0006570518,0.006448835,0.012078732,5.9604645e-08,0.1433514,0.00080516934
3.4868717e-06,0.0,1.0550022e-05,0.99999785,1.04010105e-05,0.0002682805,0.0007971525,2.9802322e-08,0.0002655983,1.7881393e-07
0.9989425,0.0,8.940697e-08,2.9802322e-08,0.0,0.00028443336,0.00027376413,1.0669231e-05,1.0192394e-05,3.9577484e-05
0.008058101,0.0,0.0002040863,2.3543835e-06,2.592802e-06,6.452203e-05,0.00016313791,0.98073196,4.1157007e-05,0.00062826276
0.012666166,4.172325e-07,1.0043383e-05,1.3411045e-05,2.9802322e-08,0.9946519,0.0004633069,6.854534e-07,0.013611078,5.2452087e-06
6.556511e-07,0.0,8.940697e-08,2.9802322e-08,0.0,5.9604645e-08,1.6361475e-05,2.3841858e-07,1.0728836e-06,1.0
9.23872e-07,0.99617755,0.00019583106,0.00042393804,1.1920929e-07,0.0012446642,0.0005402863,2.9802322e-08,0.99936545,5.096197e-06
0.0,6.303191e-05,0.0006183386,0.9999877,0.0030145645,0.00031933188,0.047618,4.082918e-06,0.0070121884,4.8339367e-05
0.0140098035,0.0,5.596876e-05,1.6987324e-05,1.1026859e-06,0.00029101968,0.00812006,5.5462122e-05,0.99001414,4.9352646e-05
3.3080578e-06,9.23574e-05,0.0,0.00012928247,1.7881393e-07,9.405613e-05,0.49113092,1.1920929e-07,0.9875442,0.0007670224
0.96571785,8.940697e-08,8.8870525e-05,1.937151e-06,1.0251999e-05,0.0008597672,0.0012028813,6.2584877e-06,0.0018562376,0.00929451
0.16224626,0.0,1.7285347e-06,3.9339066e-06,1.7881393e-07,0.00023469329,0.0004503131,0.0003053546,0.95093817,0.0003784299
0.00011071563,0.0,1.3709068e-06,4.5478344e-05,2.6345253e-05,0.00017783046,0.006732762,5.4836273e-06,0.99911344,5.4597855e-05
0.0008986294,0.0032090843,0.0001257062,0.0064341426,0.00017085671,0.07280406,0.86859345,7.8082085e-06,0.010809928,0.011401027
0.9949283,0.0,8.34465e-07,4.1127205e-06,0.0,0.0018181205,0.0011101961,1.2516975e-06,0.00043585896,0.00065773726
0.99837923,0.0,1.1920929e-07,5.9604645e-08,8.940697e-08,0.00050768256,0.0006559491,8.85129e-06,7.930398e-05,0.00045627356
4.1782856e-05,1.4901161e-07,0.0001449883,4.133582e-05,0.00053852797,3.9935112e-05,0.0033952594,0.012713999,0.02481255,0.9861559
0.681291,8.6426735e-07,8.493662e-06,1.758337e-06,8.940697e-08,0.022362739,0.1047326,6.4074993e-06,0.00010859966,0.00052270293
9.2446804e-05,0.97406083,0.019399583,0.00041016936,2.259016e-05,0.0057147443,0.029105276,2.6226044e-06,0.014298052,0.01352793
0.0,1.4901161e-07,6.1392784e-06,0.9999982,0.99923146,0.00016069412,0.0008624494,5.9604645e-07,0.00017994642,0.0
1.1980534e-05,4.172325e-07,0.0,8.672476e-06,6.2584877e-07,0.0016573668,0.99968505,0.0,2.4974346e-05,9.715557e-06
0.9857656,0.0,1.4901161e-07,0.0,0.0,1.40070915e-05,0.00014311075,0.002328217,5.4568052e-05,0.00016316772
8.046627e-07,0.0,0.9930222,3.6358833e-06,2.9683113e-05,4.0471554e-05,0.0045472383,0.000574857,0.99673295,2.3841858e-07
8.940697e-08,0.00018814206,4.1216612e-05,0.0019387007,3.3706427e-05,0.9999999,0.0045236945,2.592802e-06,0.01819262,1.296401e-05
0.9926121,0.0,1.5199184e-06,4.7683716e-07,4.172325e-07,0.0002567768,0.00040191412,9.536743e-07,0.004630208,0.00048398972
4.1484833e-05,0.00010436773,0.0141531825,1.21593475e-05,1.2099743e-05,0.99995124,0.03871882,0.00078865886,0.0012502372,0.0003273189
6.92606e-05,0.0,5.543232e-06,2.0563602e-06,0.0,5.7458878e-05,0.0015940666,3.1650066e-05,0.99964875,1.7136335e-05
5.9604645e-08,0.00010666251,0.00014948845,0.008794904,1.5318394e-05,0.3506394,0.9308788,4.4703484e-07,0.2415295,0.0004786253
1.6450882e-05,0.99499166,0.00052702427,0.78527415,0.00016024709,0.013663411,0.002339244,2.3841858e-07,0.4409044,0.0009614825
2.771616e-06,3.4570694e-06,3.4332275e-05,1.3560057e-05,2.2649765e-06,0.9999999,0.0021147728,2.0563602e-06,0.045800626,4.7683716e-07
0.1850254,1.04904175e-05,0.00014522672,1.013279e-05,8.225441e-06,0.00022214651,0.0010066628,7.4505806e-07,0.0004027784,0.94924176
0.63579553,5.9604645e-08,3.5762787e-07,2.1755695e-06,6.2584877e-07,0.000967443,0.0018508434,8.940697e-08,0.6995827,0.00052911043
0.5825919,0.0,4.172325e-07,5.9604645e-07,8.940697e-08,8.7201595e-05,0.00016605854,0.0011666417,0.7165745,9.891391e-05
2.0861626e-07,0.0003451407,0.0012050867,0.00020414591,9.387732e-06,0.99719703,0.013810009,2.682209e-07,0.015873551,0.006009847
1.0728836e-06,2.1129847e-05,0.7202414,3.2752752e-05,0.0,2.6851892e-05,0.0013076961,4.7683716e-07,0.99966705,4.172325e-07
0.0005681217,4.3660402e-05,0.024121493,7.969141e-05,0.03309387,0.001676023,0.0012797117,8.6426735e-07,0.6274313,0.001144737
4.2915344e-06,4.351139e-06,0.0012775362,0.00015285611,4.4226646e-05,0.99975806,0.006008804,5.3346157e-06,0.97549415,2.4616718e-05
0.98210084,0.0,1.3411045e-06,1.3411045e-06,6.854534e-07,0.0007877946,0.0012154281,0.00010597706,0.0029865205,0.0029376745
0.90174353,0.0,5.4240227e-05,7.748604e-07,1.6391277e-06,0.00143677,0.0036302805,2.0861626e-06,0.007986486,0.0083862245
0.00044497848,1.475215e-05,0.0016663373,5.686283e-05,5.4210424e-05,0.99952483,0.010350764,0.002484411,0.005353123,0.0024190545
1.5050173e-05,2.0861626e-07,0.9958738,7.599592e-06,1.0311604e-05,9.530783e-05,0.013483018,0.00010767579,0.99225456,2.4437904e-06
2.3245811e-06,0.0010044277,0.6338622,3.9875507e-05,0.0002348721,0.40069133,0.39384037,6.249547e-05,0.9472692,0.000104784966
4.61936e-06,0.00024211407,0.00011378527,0.9433186,0.008262306,0.0011774302,0.9609102,2.3841858e-07,0.27088577,0.00015705824
0.055625767,2.1457672e-06,0.00021612644,0.80248255,0.9666015,0.010211378,0.0065541565,2.3812056e-05,0.004314989,0.0003376603
0.00076556206,0.0,0.9993948,2.6464462e-05,4.798174e-06,0.00016504526,0.0046710074,0.0001861453,9.897351e-05,3.3408403e-05
0.11698502,0.0,1.5199184e-06,4.4703484e-06,2.9802322e-07,0.0003543198,0.0008556843,9.23872e-07,0.94404775,0.00015962124
9.23872e-07,0.08233473,0.025442779,0.9999352,0.029468685,0.0020802915,0.00086709857,4.4703484e-07,0.0028475523,3.0696392e-06
0.9983467,0.0,5.066395e-07,0.0,0.0,0.00046816468,0.00042766333,6.854534e-07,4.7802925e-05,2.9951334e-05
0.044718713,1.7881393e-07,6.854534e-07,9.834766e-07,4.7683716e-07,0.006006807,0.86158514,3.1888485e-06,0.0032990873,0.0013656318
3.221631e-05,0.0,9.23872e-07,3.3050776e-05,0.0018972158,1.4543533e-05,0.0011949241,1.1622906e-06,0.9996954,8.314848e-06
4.6789646e-06,0.0,1.2218952e-06,0.9999893,0.0,0.0001707375,0.0011221468,4.7683716e-07,0.000116974115,1.3709068e-06
0.9896612,0.0,4.172325e-07,4.7683716e-07,1.975894e-05,0.00021985173,0.00044485927,2.2113323e-05,0.00014618039,8.4251165e-05
0.17589533,3.874302e-07,6.4969063e-06,0.82237244,1.013279e-06,0.0020934045,0.0004903078,6.750226e-05,0.0013799071,0.00074642897
0.00070753694,0.0,1.0430813e-06,4.172325e-07,0.009060234,4.8965216e-05,0.00069597363,7.748604e-07,0.99359226,2.3841858e-07
6.145239e-05,1.66893e-06,0.00015485287,2.0563602e-06,3.2186508e-06,0.9999989,0.0031586587,3.6656857e-06,0.038699836,7.107854e-05
0.996011,0.0,5.9604645e-08,4.887581e-06,1.7881393e-07,0.0008826554,0.0007840395,2.9802322e-07,0.00010326505,0.00057956576
1.758337e-06,0.0,8.9854e-05,0.99999726,3.3974648e-06,2.4616718e-05,0.00044465065,8.940697e-08,7.0631504e-06,0.0
0.8660177,4.4703484e-07,0.0001860857,0.0,0.0,6.905198e-05,0.00047820807,9.3728304e-05,0.00088733435,0.064997375
8.255243e-06,0.0,2.9802322e-07,8.940697e-08,0.0,7.867813e-06,0.00026282668,0.9999809,0.0008392632,1.7672777e-05
3.4481287e-05,3.5762787e-07,1.6093254e-06,5.8710575e-06,6.020069e-06,0.0048745275,0.99075633,6.2584877e-06,0.15512523,0.0008148551
6.0349703e-05,0.0,8.6426735e-07,6.2584877e-07,2.3841858e-07,7.6293945e-06,0.00015428662,2.9802322e-08,0.99994755,3.874302e-07
0.9986513,0.0,1.4901161e-07,2.9802322e-08,0.0,0.00017046928,0.00028669834,7.4505806e-07,3.7759542e-05,1.9520521e-05
0.009441525,3.5762787e-07,0.0008406341,4.5984983e-05,1.4901161e-06,0.0009148121,0.003848523,1.32620335e-05,0.90062755,0.09662211
0.94616926,0.0,6.2584877e-07,5.9604645e-08,2.9802322e-08,0.6002875,0.0003439188,1.3113022e-06,0.000101685524,3.6984682e-05
0.00021892786,0.0,5.364418e-07,0.99996936,1.4901161e-07,0.0004093051,0.00084096193,0.0,0.00058200955,3.9339066e-06
0.8055005,2.682209e-07,0.000539124,3.4868717e-06,1.5884638e-05,0.0009947717,0.0016528368,1.41859055e-05,0.025048673,0.103021026
5.465746e-05,0.54947907,0.07152063,0.00033324957,0.00012221932,0.00639832,0.111282915,0.0008521378,0.3712098,0.01825443
0.9956147,0.0,9.23872e-07,4.172325e-07,0.0,0.0006403923,0.0008992553,1.1116266e-05,0.0007505715,0.0004656613
0.984742,0.0,1.3142824e-05,8.940697e-07,1.1622906e-06,0.00023961067,0.00023719668,0.0009178221,0.00013065338,0.0006953478
7.033348e-06,2.4050474e-05,0.00014457107,0.9999851,1.1444092e-05,0.12677711,0.015081137,7.1525574e-07,0.0023073554,7.748604e-07
0.99851763,0.0,0.0,0.0,0.0,0.000112235546,7.2449446e-05,2.0861626e-07,0.00042766333,5.7160854e-05
6.2584877e-07,2.4020672e-05,0.00055089593,4.6223402e-05,2.9593706e-05,0.9999454,0.016655535,5.6266785e-05,0.013402373,0.0005495846
5.364418e-07,0.9998574,1.9162893e-05,0.00017824769,5.9604645e-07,0.0002911985,3.221631e-05,0.0,0.9964851,3.2186508e-06
0.9976594,0.0,1.7881393e-07,1.1920929e-07,0.0,0.00052821636,0.00040957332,4.4703484e-07,0.0005245209,9.971857e-05
0.9972526,0.0,1.1920929e-07,7.748604e-07,0.0,0.0006930828,0.000603348,6.7949295e-06,0.00016745925,0.00015348196
0.04598427,2.9802322e-07,6.2286854e-06,1.6093254e-06,1.0728836e-06,0.0039994717,0.69157636,5.364418e-07,9.7334385e-05,0.00024679303
0.001387775,0.0,1.4305115e-06,5.364418e-07,0.0,1.6242266e-05,0.00016012788,0.9996546,0.00020110607,1.8179417e-05
3.9070845e-05,1.591444e-05,3.734231e-05,4.9442053e-05,1.2814999e-06,0.9993416,0.093061894,8.195639e-06,0.004004538,0.0009797215
5.185604e-06,0.95511985,0.00011754036,0.00040447712,1.013279e-06,0.9541832,0.0013962984,0.0,0.36219475,4.848838e-05
0.99824977,0.0,2.3841858e-06,0.0,0.0,0.0004708171,0.00047835708,3.7550926e-06,7.5519085e-05,0.00033146143
3.3974648e-06,0.0,8.34465e-07,0.2930053,3.695488e-06,4.9471855e-05,0.00087302923,1.4901161e-07,0.99987257,2.9802322e-08
0.99644053,0.0,2.9802322e-07,2.9802322e-08,0.0,0.00028964877,0.00035735965,2.5093555e-05,0.0002169013,0.000548929
5.364418e-07,0.0,6.8843365e-06,0.99999917,0.06085533,0.0009910464,0.00039422512,1.1622906e-06,0.00021257997,0.0
0.0027936697,8.940697e-06,1.0043383e-05,1.0281801e-05,8.940697e-08,0.99923444,0.031873018,1.4305115e-06,0.0027372837,0.0001167655
0.9657879,0.0,1.847744e-06,0.0,0.0,1.0669231e-05,0.000107347965,0.057955384,2.092123e-05,0.000228405
8.374453e-06,2.5689602e-05,4.798174e-06,3.8146973e-06,1.2218952e-06,0.00039616227,0.95978427,1.6093254e-06,0.9514245,0.00179106
0.90610856,1.4901161e-07,2.2530556e-05,1.937151e-06,3.2305717e-05,0.0010644794,0.0018008649,0.00013324618,0.004112363,0.2177
0.99622273,0.0,9.23872e-07,2.3841858e-07,8.940697e-08,0.0045003295,0.0011124015,1.7881393e-06,0.00027257204,0.0018010437
0.9945255,0.0,8.046627e-07,2.9802322e-08,0.0,7.081032e-05,0.00015968084,0.0003732741,0.00011447072,3.361702e-05
0.025205374,0.0,1.1622906e-06,7.0631504e-06,2.9802322e-08,0.00032877922,0.00044757128,2.8908253e-06,0.9917118,6.979704e-05
0.038311422,8.940697e-08,2.9921532e-05,2.95043e-06,1.2218952e-06,0.00063332915,0.0018382967,2.5629997e-06,0.9164252,0.0048056543
0.0024792254,6.2584877e-07,0.00020316243,1.2069941e-05,1.30832195e-05,0.00018149614,0.0020633042,5.3346157e-06,0.04338911,0.92029583
0.47835803,0.0,9.834766e-07,9.23872e-07,0.0,0.0019957721,0.004285872,4.3213367e-06,0.56122005,0.00083965063
3.5762787e-07,0.0,2.9683113e-05,0.9999983,5.9604645e-08,7.161498e-05,0.0027127564,5.066395e-07,0.0017353892,1.5497208e-06
0.00052168965,5.9604645e-08,6.645918e-06,5.364418e-07,7.1525574e-07,0.0006413162,0.0112068355,0.000115185976,0.9540924,0.001259625
1.4901161e-07,1.5795231e-06,0.0002502799,0.99999905,1.1861324e-05,0.00019198656,0.005388856,0.0,0.0347628,5.9604645e-08
6.854534e-07,0.0,1.1920929e-07,0.9999995,2.682209e-07,0.00019988418,0.00041407347,1.4901161e-07,3.7252903e-05,0.0
0.99319154,0.0,9.23872e-07,2.9802322e-08,2.9802322e-08,0.00010436773,0.00019577146,0.00036141276,0.0001705885,0.00014257431
0.0056363344,0.0,5.90086e-06,2.115965e-06,0.0058524907,0.00012722611,0.0001808703,0.000104278326,0.9756634,1.3738871e-05
8.940697e-08,4.4107437e-06,5.4508448e-05,0.89912015,0.99682397,0.0024457872,0.79344094,2.5629997e-06,0.0060759485,1.1175871e-05
0.9985676,0.0,1.7881393e-07,8.940697e-08,0.0,0.0006529391,0.00037688017,1.5944242e-05,2.5480986e-05,3.9041042e-05
3.6627054e-05,0.0,8.6426735e-07,2.3037195e-05,2.2947788e-06,5.3077936e-05,0.0011852086,5.9604645e-07,0.9995886,0.00012493134
0.00017341971,0.0,3.5971403e-05,0.0021006763,3.0994415e-06,9.9122524e-05,0.0013034344,7.748604e-07,0.99925613,4.9471855e-06
4.094839e-05,0.0,1.9967556e-06,3.951788e-05,7.748604e-07,0.00012001395,0.0016020238,0.00015130639,0.99989676,1.9580126e-05
6.785989e-05,0.99788094,0.0006059706,0.00019878149,2.8967857e-05,0.002455175,0.0028422475,1.4901161e-07,0.68454564,0.0012553632
1.1622906e-05,1.3232231e-05,1.6361475e-05,0.9998901,0.0011338592,0.019439101,0.004796773,9.23872e-07,0.00026595592,2.026558e-06
1.5497208e-06,7.3313713e-06,0.9923353,4.529953e-06,5.096197e-06,0.99996054,0.013911009,2.7954578e-05,0.0030940175,2.9802322e-07
0.3711927,1.4901161e-07,0.0009454191,3.5762787e-07,0.0,0.5287412,0.0008162856,0.00083744526,0.00032922626,0.00019839406
1.2516975e-06,9.036064e-05,0.033441156,3.1501055e-05,6.467104e-06,0.99999976,0.0022542775,7.4207783e-06,0.0116350055,3.993511e-06
0.98887396,0.0,1.5676022e-05,1.1920929e-07,0.0,0.00040253997,0.0004208386,0.00019353628,0.00051128864,0.00059217215
4.926324e-05,0.0,8.940697e-08,6.4373016e-06,0.0,4.389882e-05,0.00027224422,6.330013e-05,0.99984294,3.2037497e-05
0.003422439,0.0,1.2934208e-05,2.0861626e-07,0.0,0.000103503466,0.00073972344,1.7285347e-06,0.99797714,0.00014951825
0.0015444458,2.9802322e-08,4.258752e-05,1.8179417e-06,2.3841858e-07,6.774068e-05,0.002036512,6.625056e-05,0.99754083,0.00026082993
0.8035625,0.0,5.9604645e-07,9.536743e-07,0.0,0.00041171908,0.00032266974,3.0845404e-05,0.5884493,0.0004733503
8.8870525e-05,4.4703484e-07,2.7745962e-05,0.00016796589,1.1920929e-07,0.00010636449,0.003205806,8.940697e-08,0.99981284,6.7055225e-06
0.0005521178,0.8358282,0.021582305,0.0012334287,0.0014144778,0.010595918,0.03297648,5.0365925e-06,0.058044493,0.27032948
5.066395e-07,4.172325e-07,0.0018414557,0.99999195,0.0019333363,0.00017112494,0.0013326406,0.0,0.0474509,0.0
0.9973,0.0,4.172325e-07,0.0,0.0,0.00051531196,0.00058320165,1.66893e-06,0.0018039048,3.9219856e-05
0.0007073879,0.0,2.2649765e-06,1.3023615e-05,2.9802322e-08,5.9068203e-05,0.00020000339,4.3064356e-05,0.9995135,3.0696392e-05
0.103874266,0.0,2.9206276e-06,4.976988e-06,1.8537045e-05,0.0006040931,0.0020011365,1.4305115e-05,0.9485444,3.4600496e-05
2.0563602e-06,0.0020864308,0.009270608,0.0029400587,8.970499e-06,0.0074293315,0.049159348,2.95043e-06,0.9987515,7.1167946e-05
0.058331728,0.00044181943,0.021676093,1.2218952e-05,5.066395e-07,0.004302323,0.47835872,0.00091689825,0.00075238943,0.048027277
0.9861558,0.0,5.3048134e-06,1.6093254e-06,1.7881393e-07,0.0009895265,0.000918597,7.4505806e-07,0.0007428825,0.0273861
0.99715257,0.0,8.940697e-08,2.3841858e-07,1.7881393e-07,0.0007355809,0.00025877357,1.4007092e-06,9.229779e-05,0.000500381
0.9876935,0.0,5.364418e-07,1.1026859e-06,1.1920929e-07,0.0012515783,0.00081557035,4.0233135e-05,0.0010534823,0.0071772635
0.98920095,0.0,7.4505806e-07,0.0,0.0,1.8328428e-05,0.00015226007,0.00026369095,0.00019028783,0.00018319488
1.3738871e-05,0.008135438,0.97144616,1.9073486e-05,3.0606985e-05,0.0065670907,0.10101029,0.000249058,0.002408713,0.0013568401
0.0030283332,0.0,0.036076188,4.0501356e-05,9.23872e-07,0.00032696128,0.0027031898,0.00105986,0.99141157,8.365512e-05
4.7057867e-05,0.20291248,0.017096072,0.028296262,3.6627054e-05,0.015590429,0.0075014234,1.1026859e-05,0.19218978,0.47137672
0.9864371,0.0,5.9604645e-08,8.34465e-07,2.682209e-07,0.00022095442,0.00033301115,2.0861626e-07,0.008745909,0.00018584728
0.95327777,0.0,8.940697e-08,7.4505806e-07,1.1920929e-07,0.00090429187,0.00052571297,1.4901161e-07,0.025325418,0.002113074
0.0,0.0019977093,0.07795051,0.99999964,0.013693929,0.0014081597,0.040726334,0.0,0.0010393262,8.940697e-08
7.867813e-06,0.99822176,0.0011487901,0.0006286204,3.6269426e-05,0.018565804,0.0019189417,1.4007092e-06,0.39937058,0.00041148067
8.532405e-05,0.0,1.4007092e-06,1.6093254e-06,3.2782555e-07,2.5838614e-05,0.0005668998,5.9604645e-08,0.999863,8.34465e-07
0.99768966,0.0,3.5762787e-07,8.940697e-08,0.0,0.0006401837,0.0013850033,1.66893e-06,0.0002104044,0.00019073486
3.6358833e-05,5.9604645e-08,2.8014183e-05,0.005635828,4.848838e-05,0.00020992756,0.011912316,2.8312206e-06,0.99958277,2.1725893e-05
2.861023e-05,0.0,5.057454e-05,6.28829e-06,0.018899143,3.20971e-05,0.0020787418,0.00055629015,0.99931234,2.8908253e-06
0.995136,0.0,1.4901161e-07,0.0,0.0,0.000101298094,0.00015774369,2.142787e-05,0.0008370578,3.8832426e-05
3.5762787e-07,1.3113022e-06,0.0005685091,2.3275614e-05,4.0382147e-05,0.99992317,0.0065298975,5.90086e-06,0.88763046,9.173155e-05
1.4901161e-07,0.95014346,0.05656278,0.011671603,0.0001746118,0.9999795,0.0008517504,3.9339066e-06,0.24153495,2.9206276e-06
0.0032230914,1.4901161e-07,2.413988e-06,0.9961964,5.066395e-07,0.00074645877,0.0005994439,1.7672777e-05,5.6892633e-05,6.556511e-06
0.99763274,0.0,1.1920929e-07,8.940697e-08,0.0,9.635091e-05,0.00036466122,1.0877848e-05,0.00026911497,1.296401e-05
0.0010347664,0.0,2.4348497e-05,8.940697e-08,0.0,3.4868717e-06,0.00064507127,0.9984723,0.0016869307,0.001162231
0.029741734,6.7293644e-05,0.78527427,4.4047832e-05,1.1622906e-06,0.0008545518,0.0030709505,0.0028458536,0.25377163,0.0006711185
0.8649726,0.0,6.854534e-07,0.0,0.0,6.0796738e-06,2.3692846e-05,0.085235864,3.8802624e-05,0.0016469359
0.99796927,0.0,1.7881393e-07,1.7881393e-07,2.9802322e-08,0.0004248917,0.00036007166,2.026558e-06,9.408593e-05,0.00033318996
5.9604645e-08,0.002148509,0.0015231967,0.99975026,0.00075015426,0.00448218,0.6691193,2.0861626e-07,0.647995,2.3454428e-05
0.9942398,0.0,3.72231e-05,1.1920929e-07,0.0,0.00021594763,0.0003836751,2.2351742e-06,1.5944242e-05,2.2292137e-05
0.1534633,0.0,0.0007074177,2.95043e-06,5.2154064e-06,0.00060746074,0.0013290346,0.00045657158,0.90807223,0.0063456
0.00023451447,1.5497208e-06,2.3841858e-07,1.1622906e-06,1.1920929e-06,0.001052916,0.94258934,4.172325e-07,0.0411914,0.018214941
0.0,5.662441e-07,2.6643276e-05,0.9999993,0.00016021729,0.000516057,0.0067134798,2.0861626e-07,0.0006299913,1.1920929e-06
0.9971973,0.0,5.364418e-07,8.940697e-08,0.0,0.000310421,0.00019586086,1.9967556e-06,7.9751015e-05,8.6545944e-05
0.9994587,0.0,0.0,0.0,0.0,0.00013110042,0.00023648143,2.9802322e-07,4.005432e-05,1.692772e-05
1.8298626e-05,8.958578e-05,0.0011153519,0.0002693534,0.00017216802,0.99979377,0.012263298,1.847744e-05,0.0030269623,0.0009876788
1.4156103e-05,0.0,3.20971e-05,1.5497208e-06,8.940697e-08,4.8935413e-05,0.0035653412,0.00198856,0.9983281,0.0006598532
4.172325e-07,1.1920929e-07,1.0728836e-06,1.6272068e-05,0.0,8.323789e-05,0.69181484,3.7252903e-06,0.9998778,1.3142824e-05
0.00011482835,0.0,2.682209e-07,1.7672777e-05,2.682209e-07,0.00010344386,0.0003798306,4.976988e-06,0.99973226,1.4275312e-05
5.543232e-06,4.2915344e-06,0.9925715,1.3023615e-05,0.00061163306,0.002392888,0.062734514,8.067489e-05,0.39576387,0.00029864907
0.9959328,0.0,1.7881393e-07,0.0,0.0,0.000135988,0.0002039671,4.440546e-06,0.00014418364,0.0009995699
1.758337e-06,0.0,8.940697e-08,0.0,0.0,5.9604645e-08,0.000121444464,0.0,1.0251999e-05,0.9999112
0.0027617216,0.0,0.0013662279,1.9103289e-05,0.99664843,3.8027763e-05,0.00056892633,1.4066696e-05,5.143881e-05,7.972121e-05
0.99449193,5.9604645e-08,4.053116e-06,1.1920929e-07,0.0,0.0016794801,0.0013090372,2.115965e-06,0.0005889833,0.00074604154
0.3005935,6.1541796e-05,5.3733587e-05,3.6627054e-05,7.262826e-05,0.0028197467,0.008908659,6.946921e-05,0.019400299,0.39460996
0.99633265,0.0,2.9802322e-07,1.4901161e-07,0.0,0.00034427643,0.00042939186,4.4703484e-07,0.0014983416,7.537007e-05
6.2584877e-07,0.0,3.0517578e-05,8.940697e-08,0.0,5.662441e-07,0.00024178624,1.1920929e-07,2.861023e-06,0.99999344
0.007188529,2.9802322e-08,6.881356e-05,1.7553568e-05,2.3841858e-07,0.0001809597,0.002264738,0.002554953,0.9667178,0.0014359355
0.4643144,8.940697e-08,3.9607286e-05,0.00578022,1.847744e-06,0.007099867,0.0016580224,3.3020973e-05,0.45828617,0.016421646
0.99782604,0.0,5.9604645e-08,1.1920929e-07,0.0,0.00022500753,0.00031775236,5.9604645e-08,0.0002603531,5.3793192e-05
8.225441e-06,1.4007092e-06,4.7683716e-07,1.847744e-06,2.2053719e-06,0.0047041476,0.9993894,2.503395e-06,0.00035881996,0.00046005845
8.940697e-07,3.993511e-06,0.0009521842,3.5703182e-05,6.4611435e-05,0.9999999,0.0032736957,1.3709068e-06,0.06270099,1.21593475e-05
1.1354685e-05,0.0,6.0796738e-06,0.99998367,3.5762787e-07,0.00032439828,0.0035762787,8.34465e-07,0.00040861964,1.2665987e-05
0.99552166,0.0,5.543232e-06,4.7683716e-07,2.0861626e-07,0.0015448332,0.0014362633,2.3573637e-05,4.261732e-05,0.0002978444
1.0341406e-05,1.7881393e-07,7.748604e-07,0.9999944,6.854534e-07,0.00035485625,0.00052294135,2.9802322e-08,0.00031751394,1.3709068e-06
5.662441e-07,0.97343254,0.0016101301,0.9994664,0.00054973364,0.004763782,0.00041165948,8.940697e-08,0.15760493,2.5093555e-05
0.9929399,0.0,1.2516975e-06,5.9604645e-08,1.7881393e-07,0.00011178851,0.00028279424,0.0001810193,6.762147e-05,0.0026649237
2.2172928e-05,6.943941e-06,0.0031286776,0.003916025,0.78673124,0.99995756,0.015234143,0.00017282367,0.004762143,3.6597252e-05
4.7683716e-06,0.0,5.066395e-07,0.99999845,0.0,0.00018271804,0.000675112,0.0,2.2530556e-05,0.0
4.029274e-05,0.0,0.0,3.5464764e-06,0.0,4.6044588e-05,0.00031256676,1.3411045e-06,0.9997874,7.2717667e-06
0.0061043203,2.9802322e-08,7.6293945e-06,0.9725845,1.5497208e-06,0.0012463927,0.0009199083,0.00014936924,0.01627475,4.4554472e-05
1.1563301e-05,3.3974648e-06,0.00021716952,0.00033184886,3.838539e-05,2.6106834e-05,0.001114577,2.9802322e-08,0.005573243,0.8657621
3.427267e-06,0.0,0.0,0.9999827,0.0,7.4237585e-05,0.00075799227,1.3411045e-06,3.5762787e-05,4.172325e-07
0.00040480494,3.874302e-05,1.8775463e-06,1.3589859e-05,5.841255e-06,0.009078622,0.87445575,0.00020134449,0.36707157,0.0071017444
0.9898132,0.0,2.4437904e-06,8.046627e-07,1.7881393e-07,0.00059455633,0.00046780705,6.28829e-06,0.0004966259,0.0033439696
0.9992368,0.0,2.3841858e-07,0.0,0.0,0.000116318464,0.00015717745,3.784895e-06,2.6851892e-05,4.7951937e-05
0.38145375,0.0,9.983778e-06,1.6182661e-05,5.9604645e-08,0.00021898746,0.0008762479,0.13520417,0.0029576719,0.00028318167
0.0051760674,5.155802e-06,2.2500753e-05,2.6196241e-05,5.9604645e-08,0.00087860227,0.93638957,0.102785975,5.1021576e-05,0.00019431114
1.4901161e-07,2.9802322e-08,2.0563602e-06,0.9999362,1.9073486e-06,0.00014868379,0.0017543733,3.5762787e-07,0.99011457,2.9802322e-08
2.1725893e-05,0.0076497793,0.033913165,0.00013118982,0.00011014938,0.99834675,0.035572916,5.2452087e-06,0.13991603,0.0016543865
0.026193082,8.940697e-08,6.7055225e-06,6.4730644e-05,4.1127205e-06,0.0011181235,0.0036892295,1.0222197e-05,0.9443093,0.00544098
1.4305115e-06,0.0020168424,0.70281696,0.002524227,6.276369e-05,0.00044313073,0.4424108,1.9073486e-06,0.99637663,3.027916e-05
0.29122585,0.0,8.940697e-07,2.9802322e-08,5.9604645e-08,5.096197e-06,4.759431e-05,0.76508534,0.000482589,2.5361776e-05
0.0028470457,7.748604e-07,4.9471855e-05,2.7567148e-05,3.5762787e-07,0.00012996793,0.0027113557,1.1622906e-06,0.9954817,0.00030007958
0.96927154,0.0,0.00016880035,9.536743e-07,8.940697e-08,0.00016614795,0.0007888675,0.013873905,0.0001244247,0.0013347566
0.98378897,0.0,8.34465e-07,4.172325e-07,0.0,0.00083750486,0.00042366982,6.943941e-06,0.019315004,0.0015999973
0.0014972389,4.7683716e-07,0.9990361,2.6255846e-05,2.4735928e-06,0.00036033988,0.00507766,1.5288591e-05,0.011117935,1.424551e-05
0.99152106,0.0,3.7252903e-06,5.9604645e-08,2.9802322e-08,8.4728e-05,0.00035884976,0.00017568469,0.0004016757,0.0009201765
8.672476e-06,5.9604645e-08,1.013279e-06,9.217858e-05,8.940697e-08,6.553531e-05,0.0017569363,1.2814999e-06,0.9986048,0.00051763654
0.42561698,0.0,1.7762184e-05,1.1563301e-05,5.662441e-07,0.0013957322,0.0008377731,1.6838312e-05,0.65107775,0.005437821
0.96551335,1.1920929e-07,3.299117e-05,1.0699034e-05,5.8561563e-05,0.001967609,0.0017494261,4.157424e-05,0.0019013882,0.013591021
0.008119762,0.0,1.5795231e-06,4.798174e-06,2.6226044e-06,0.00050005317,0.002197206,2.9802322e-07,0.95507586,0.0024533272
0.19232479,0.0,1.4603138e-06,1.0967255e-05,1.7881393e-07,0.0006264448,0.0005353093,2.7149916e-05,0.88487554,0.004816979
3.427267e-06,5.662441e-07,0.99953544,0.00071540475,7.7962875e-05,0.00050646067,0.013731271,9.536743e-05,0.0015394986,0.00090393424
6.8217516e-05,0.0,2.3841858e-07,1.1920929e-07,1.296401e-05,0.00013387203,0.0012468994,3.5762787e-06,0.99868864,5.2452087e-06
7.688999e-06,0.00011819601,0.0014359653,3.6656857e-05,0.33369476,0.0020880997,0.072216034,0.00032103062,0.0030213296,0.47449863
0.85463154,0.0,2.9802322e-07,7.748604e-07,2.9802322e-08,0.0005094409,0.00038215518,1.4901161e-07,0.47056913,0.0005056262
7.420778e-05,0.0,1.0728836e-06,8.6426735e-07,5.9604645e-08,2.1457672e-05,0.0015702248,1.7881393e-07,0.99992573,8.046627e-07
0.99669516,0.0,7.748604e-07,8.940697e-08,5.9604645e-08,0.00051119924,0.00034490228,1.6391277e-06,0.00025868416,0.00085020065
0.007019341,0.0,4.172325e-06,1.3649464e-05,2.2053719e-06,0.0003386438,0.0014398992,3.287196e-05,0.9932804,0.0006071031
2.0861626e-07,4.7385693e-06,0.031885266,5.00679e-06,6.7055225e-06,0.99998134,0.002956897,3.8951635e-05,0.97288036,2.7120113e-06
0.2788036,2.682209e-07,3.758073e-05,1.4960766e-05,0.0,0.003922254,0.0035099685,0.0003683567,0.7288754,0.010811716
0.87423986,0.0,2.3841858e-07,3.5762787e-06,0.0,0.00053951144,0.00021070242,5.0008297e-05,0.19664362,0.001126945
0.9875358,0.0,6.2584877e-07,2.771616e-06,1.7881393e-07,0.0011906028,0.00050053,3.3974648e-06,0.0006456077,0.0035612881
0.00051027536,0.0,4.798174e-06,2.1755695e-06,2.9802322e-08,0.00010997057,0.00044116378,2.8312206e-06,0.9992529,6.070733e-05
1.9907951e-05,8.940697e-08,0.9999728,2.2649765e-05,4.5895576e-06,0.00012037158,0.001968205,8.961558e-05,0.00089895725,1.1622906e-06
0.9919039,0.0,6.556511e-07,7.748604e-07,5.9604645e-08,0.0005533695,0.00043600798,1.4901161e-06,0.00029802322,0.0002400279
0.95991707,0.0,4.798174e-05,1.5199184e-06,6.556511e-07,0.0019071996,0.0010961294,2.4735928e-05,0.0013979673,0.008318096
0.97856116,0.0,2.0861626e-07,2.9802322e-08,0.0,1.8715858e-05,0.00012102723,0.006213814,4.464388e-05,0.00019109249
0.0,3.325939e-05,0.94632363,0.0001039505,9.846687e-05,0.994866,0.008778602,5.841255e-06,0.9905975,1.0430813e-06
0.9509278,0.0,1.8775463e-05,1.4603138e-06,5.066395e-07,0.00025847554,0.00040447712,0.0004492402,0.006842166,5.7578087e-05
5.2452087e-06,0.9272828,8.9377165e-05,0.0007196963,5.9604645e-07,0.002769649,0.01260066,6.2584877e-07,0.98774934,0.0013028085
1.5348196e-05,0.9974227,0.0012222826,0.00020977855,0.00023424625,0.75312006,0.0004183054,9.834766e-07,0.17526555,0.0010648668
0.061201483,0.0,2.9802322e-07,5.6922436e-06,0.0,0.0007388592,0.0010515153,1.8179417e-06,0.9578027,1.2874603e-05
2.9802322e-08,0.0,0.00016489625,0.99999976,0.59133834,0.00048843026,0.0012909174,8.940697e-08,0.0003258884,0.0
0.9844791,0.0,1.6629696e-05,1.013279e-06,2.3841858e-07,0.00034064054,0.0012848973,6.198883e-06,0.0368281,1.5705824e-05
0.0014192164,0.0,4.440546e-06,8.940697e-08,0.0,0.00017675757,0.0011453629,2.6226044e-06,0.9971503,0.00039824843
0.00042638183,3.4868717e-05,2.503395e-06,5.364418e-07,3.2782555e-07,0.0010156631,0.9967178,7.659197e-06,0.0028894246,0.00046241283
2.682209e-06,5.9604645e-08,4.7683716e-07,0.9999995,2.9802322e-08,0.00034415722,0.0006611049,8.940697e-08,4.374981e-05,1.4901161e-07
3.1262636e-05,3.7252903e-06,8.940697e-08,2.0861626e-07,8.940697e-08,0.0009978712,0.997957,7.390976e-06,5.2392483e-05,0.0022846758
0.95938146,0.0,0.0,3.874302e-07,2.9802322e-07,0.0010760725,0.0008215904,4.7385693e-06,0.016590118,0.0008814931
0.930675,0.0,0.0012948811,3.874302e-07,2.9802322e-08,0.00013649464,0.0008312166,0.008114904,9.956956e-05,7.0124865e-05
4.172325e-07,5.6922436e-05,0.0033586025,0.0010423064,0.00036141276,0.9999982,0.008072823,9.864569e-05,0.004529327,1.4543533e-05
2.7954578e-05,0.0,7.748604e-07,5.90086e-06,2.9802322e-08,5.888939e-05,0.0032326877,3.5762787e-07,0.9999367,3.3974648e-06
9.834766e-07,8.0257654e-05,0.019200623,0.99332786,3.620982e-05,0.0005943477,0.004440367,2.9802322e-08,0.9790093,7.748604e-07
0.66740024,0.0,2.9802322e-07,1.4007092e-06,1.1026859e-06,0.00048151612,0.00082346797,1.7881393e-07,0.31291896,0.008070499
2.3245811e-06,0.00989005,6.070733e-05,0.0006504953,5.066395e-07,0.0024352074,0.52043015,0.0,0.98297286,0.0015406907
0.99549663,0.0,2.2351742e-06,2.682209e-07,0.0,0.0011736155,0.0014538467,2.5302172e-05,7.200241e-05,0.000349015
0.99590576,0.0,1.1026859e-06,8.940697e-08,0.0,0.00010749698,0.00022611022,0.0004593432,3.20971e-05,0.00047686696
3.2693148e-05,2.9802322e-08,4.7683716e-07,0.9999898,2.0861626e-07,0.0004964769,0.0007828772,1.4901161e-07,0.00014141202,2.9802322e-07
0.9989871,0.0,2.9802322e-07,0.0,0.0,0.0006147325,0.00043320656,4.827976e-06,1.5616417e-05,1.6778708e-05
0.021959871,3.4481287e-05,0.00036266446,1.9341707e-05,4.351139e-06,0.0015313923,0.009110868,1.4901161e-06,0.9153135,0.03278777
0.00029611588,0.0,1.8179417e-06,1.6391277e-05,1.9669533e-06,1.0043383e-05,9.185076e-05,0.99762654,0.036710173,0.0020621717
1.4424324e-05,0.0,3.874302e-07,6.0498714e-06,0.0,2.8669834e-05,0.0015022755,2.6196241e-05,0.99996877,1.0728836e-06
1.335144e-05,0.0,2.682209e-07,0.99999535,9.834766e-07,0.00026372075,0.0005466342,8.940697e-08,0.0002784133,0.0
2.9802322e-08,0.9804397,0.0016466975,6.41644e-05,0.7112111,0.0012041926,0.00047373772,4.172325e-07,0.006438762,0.0001848042
4.348159e-05,1.1920929e-06,0.00028803945,1.1116266e-05,1.1593103e-05,0.00015878677,0.00095796585,1.8626451e-05,0.0009679496,0.98634183
9.179115e-06,0.0,1.4901161e-07,0.9999975,3.2782555e-07,0.00049832463,0.0005955696,5.9604645e-08,4.4554472e-05,5.9604645e-08
6.824732e-06,0.0,2.3543835e-06,0.9999978,1.3232231e-05,0.00039190054,0.0018001795,0.0,0.0048974454,0.0
0.00061684847,0.0,2.0861626e-07,2.0951033e-05,1.1920929e-07,0.00013563037,0.0011515915,2.2113323e-05,0.9989333,5.1498413e-05
0.5386394,0.0,3.5762787e-07,2.026558e-06,8.940697e-07,0.00036743283,0.0015895963,1.9490719e-05,0.16348824,0.017605424
0.99769354,0.0,1.1920929e-07,0.0,0.0,3.20971e-05,7.584691e-05,9.3877316e-05,2.4110079e-05,5.301833e-05
1.3440847e-05,2.5570393e-05,0.00021123886,0.00050386786,8.493662e-05,0.0045436025,0.9665699,0.0021216273,0.00013753772,0.012350649
0.018319428,0.0,2.026558e-06,3.5256147e-05,6.8843365e-06,0.00046241283,0.001198858,3.9041042e-06,0.9762067,0.00049722195
0.998335,0.0,1.4901161e-07,8.940697e-08,0.0,9.7960234e-05,0.000102847815,1.7881393e-07,4.7832727e-05,0.0008561909
0.9949702,0.0,4.172325e-07,3.5762787e-07,2.3841858e-07,0.0002798736,0.00066819787,1.1026859e-06,0.0004965067,0.00031340122
7.557869e-05,8.940697e-08,0.00016710162,1.4901161e-06,2.3841858e-07,5.877018e-05,0.0010138452,0.996729,0.0081395805,0.0013822019
0.97472847,0.0,0.00027626753,1.1920929e-07,0.0,0.0026975572,0.0009073317,6.4730644e-05,0.0032226145,0.00018441677
0.123873144,0.0,6.198883e-06,1.7881393e-07,0.0,2.8908253e-06,4.041195e-05,0.9795183,0.0001013577,4.6759844e-05
1.1622906e-06,0.0,0.99955755,9.4771385e-06,6.854534e-07,6.6667795e-05,0.005953759,5.155802e-06,0.992417,5.9604645e-08
2.0831823e-05,5.9604645e-08,0.9998496,1.3768673e-05,5.6892633e-05,0.0001398921,0.0017728806,0.00014939904,0.27042848,1.4305115e-06
0.9894738,5.9604645e-08,0.0016741157,9.834766e-07,5.066395e-07,0.0004079342,0.000513643,4.1753054e-05,2.8699636e-05,0.00044333935
5.9604645e-08,8.34465e-07,0.0001988411,9.581447e-05,2.1070242e-05,1.0,0.0008583367,6.8843365e-06,0.0015517175,6.854534e-07
0.035238504,8.940697e-08,0.00041359663,5.9604645e-08,2.9802322e-08,1.1861324e-05,0.0005823374,0.033625692,0.00019004941,0.6945899
0.98156536,0.0,1.8566847e-05,9.834766e-07,1.1920929e-07,0.0010422468,0.0009480417,0.00050258636,0.0002872944,0.008873194
0.00021705031,0.0031005442,0.953316,0.0019396842,2.3394823e-05,0.0019477904,0.0171071,1.1920929e-06,0.039806575,0.004491061
6.7949295e-06,2.3841858e-07,0.9930333,0.015042096,2.0802021e-05,0.000708133,0.010582894,0.4362553,0.00017178059,9.775162e-06
0.0,0.0083597,5.00679e-06,0.9999902,0.10358408,0.0860554,0.46069187,2.9802322e-08,0.037894547,5.930662e-06
1.2814999e-06,2.0861626e-07,0.0010333061,0.99996096,0.0062372983,0.00091958046,0.0008586347,5.9604645e-08,0.04481688,0.00062939525
0.00029334426,0.00046506524,5.9604645e-08,2.336502e-05,0.0,3.4362078e-05,0.00017040968,0.0,0.010295898,0.9567461
1.1503696e-05,0.00033301115,0.6900691,0.99990976,2.026558e-06,0.00040644407,0.0038093925,1.2516975e-06,0.00028258562,2.2292137e-05
0.99718386,0.0,2.026558e-06,1.66893e-06,0.0,0.00091281533,0.0016958117,3.1888485e-06,0.00016698241,0.00014257431
0.120878935,0.0,1.847744e-06,1.758337e-06,0.32321882,0.00023236871,0.00034838915,5.9604645e-07,0.4956029,4.5508146e-05
4.4703484e-07,0.10345045,9.1552734e-05,0.00014671683,9.23872e-07,0.000803411,0.040228188,1.4901161e-07,0.9995897,5.9455633e-05
1.7106533e-05,0.0,0.0,3.516674e-06,0.0,0.00014045835,0.00045704842,3.0398369e-06,0.9997841,5.00381e-05
0.9886183,0.0,1.5556812e-05,2.115965e-06,0.0,0.0008850992,0.000844419,0.0008250475,7.7188015e-06,0.001647234
0.99296135,0.0,2.3841858e-07,4.7683716e-07,3.3974648e-06,0.0002770126,0.00041157007,1.7881393e-07,0.00016367435,0.0012017787
5.9604645e-08,0.010920405,1.463294e-05,0.9999454,1.3321638e-05,0.00017932057,0.00081834197,0.0,0.98988485,0.0
0.9425571,0.0,1.513958e-05,9.834766e-07,2.9802322e-07,0.0015599728,0.0008931756,5.543232e-06,0.12214807,0.002755016
5.9127808e-05,4.172325e-07,0.9998489,0.039719224,1.4692545e-05,0.00042968988,0.002881974,2.1845102e-05,0.0005865395,1.9073486e-06
5.581975e-05,5.9604645e-08,0.99758804,1.4603138e-05,1.2934208e-05,0.00024744868,0.004021555,2.4855137e-05,0.2015509,6.830692e-05
0.98104334,0.0,2.604723e-05,1.4305115e-06,1.1920929e-07,0.000541538,0.0005172491,9.804964e-06,0.0021428168,0.0007529557
0.00036245584,0.0,2.682209e-06,2.503395e-06,4.172325e-07,5.8174133e-05,0.00043913722,5.5730343e-06,0.9985944,0.00054365396
0.43911588,0.0023467839,0.44290766,1.5497208e-05,1.4901161e-06,0.0038238764,0.055846393,0.00033074617,0.001550436,0.0012915134
2.3037195e-05,0.9986806,0.0004349053,0.0037289262,0.00014930964,0.016576022,0.00066044927,8.940697e-08,0.313963,0.0015590191
0.9870019,2.9802322e-08,0.0002798736,2.503395e-06,8.940697e-08,0.0005967617,0.0012134314,2.1755695e-06,0.00038152933,0.00027686357
0.99646914,5.9604645e-08,9.834766e-07,2.682209e-07,5.9604645e-08,0.0020365715,0.004972607,3.3974648e-06,0.00042399764,0.00023543835
0.14043593,5.9604645e-08,0.6747539,2.8133392e-05,5.2452087e-06,0.00019392371,0.001714766,6.41644e-05,0.37223697,0.00010308623
2.3841858e-07,4.6491623e-06,8.940697e-07,0.99999225,2.682209e-07,0.00047129393,0.00205791,5.9604645e-08,0.66433525,8.940697e-08
0.30435154,0.0,6.2584877e-07,4.7683716e-07,0.0,0.00039994717,0.00022035837,6.5624714e-05,0.7546169,0.00052306056
0.33977896,0.0,7.033348e-06,2.8014183e-06,6.2584877e-07,0.0007208288,0.006851554,2.7745962e-05,0.7728187,0.00014430285
7.748604e-07,0.9985759,8.72612e-05,0.0018566251,1.5199184e-06,0.0044806004,0.00037243962,1.1920929e-07,0.94555694,0.00024282932
8.940697e-08,4.4703484e-07,3.695488e-06,0.9999995,1.1920929e-06,0.000207901,0.0013011992,5.9604645e-08,0.0008381307,0.0
0.99614394,0.0,2.0861626e-07,2.9802322e-08,0.0,8.240342e-05,0.0002706647,5.248189e-05,1.6748905e-05,0.00028401613
0.99537575,0.0,2.9802322e-07,0.0,1.7881393e-07,0.00077205896,0.000395298,4.23193e-06,0.0002361536,0.00030180812
0.99641126,0.0,1.6987324e-06,1.7881393e-07,0.0,0.00026485324,0.00047186017,3.4868717e-06,2.336502e-05,5.2303076e-05
0.0032645166,1.4305115e-06,3.9190054e-05,0.00020983815,1.3709068e-06,0.0015830398,0.017236471,6.4373016e-06,0.04133004,0.50947523
1.5199184e-06,0.9979222,8.293986e-05,0.0017078817,2.9802322e-07,0.001116693,0.00020900369,0.0,0.99876636,3.0994415e-06
4.917383e-06,1.4573336e-05,0.0041390657,3.8176775e-05,6.80089e-05,0.9999975,0.007591665,5.7965517e-05,0.25321135,2.6404858e-05
0.9959811,0.0,5.9604645e-08,1.4901161e-07,0.0,0.0007831454,0.00081932545,1.1920929e-07,0.0013937354,7.0631504e-05
1.0430813e-06,0.00015178323,0.9337765,0.00012931228,0.0086945295,0.0019614995,0.28282475,0.0017733872,0.0010579824,0.005401522
0.007209718,2.592802e-06,0.001281321,4.172325e-07,2.1457672e-06,0.00027367473,0.001832068,0.00012135506,0.00039693713,0.98513997
4.3213367e-06,0.0,0.0013741553,2.592802e-06,0.78185296,1.1563301e-05,0.0018760562,2.3752451e-05,0.9998282,4.5895576e-06
0.00010180473,9.804964e-05,0.0003771186,3.015995e-05,2.592802e-06,0.9999981,0.031805933,3.993511e-06,0.0036734939,1.1086464e-05
0.96572196,1.937151e-06,8.970499e-06,9.357929e-06,1.3113022e-06,0.0017124414,0.00052806735,6.854534e-07,0.019806057,0.0015859902
0.9666533,2.413988e-06,1.5437603e-05,5.9604645e-08,8.940697e-08,0.00054576993,0.0017606318,7.8082085e-06,0.00012129545,0.121236324
2.6971102e-05,0.994388,9.23574e-05,0.002743423,0.00012275577,0.0077617764,0.002527684,0.0,0.033248514,0.010975182
0.997417,0.0,2.9802322e-07,5.9604645e-08,0.0,0.0011428595,0.0020665526,3.6656857e-06,5.4568052e-05,2.002716e-05
0.001488328,0.0,9.715557e-06,4.1395426e-05,3.993511e-06,0.00010514259,0.00040489435,0.00029426813,0.9989124,3.552437e-05
1.4007092e-06,3.3080578e-06,2.4408102e-05,1.758337e-06,7.1525574e-07,0.005265385,0.9363706,5.1259995e-06,0.689365,0.0040451586
0.9969616,0.0,2.0861626e-07,0.0,0.0,7.382035e-05,0.00015458465,2.4974346e-05,0.00020200014,9.062886e-05
1.0609627e-05,2.9802322e-08,6.452203e-05,1.1622906e-06,2.3841858e-07,0.9999976,0.0038389266,5.364418e-07,0.036709934,4.23193e-06
0.1729182,2.9802322e-07,0.8855469,2.9802322e-08,0.0,8.255243e-05,0.0015594661,0.0025770366,1.168251e-05,2.2619963e-05
0.00011366606,1.4901161e-07,2.8014183e-06,0.999983,2.0861626e-07,0.0005170107,0.00044694543,2.9802322e-08,0.0025535822,2.95043e-06
0.13035992,1.1920929e-07,0.0015567243,1.0430813e-06,4.172325e-07,0.00026413798,0.0033775568,0.0053443015,0.00080642104,0.88382626
0.48933563,0.0,1.1920929e-07,2.682209e-07,0.0,0.00012347102,0.0002782941,6.3180923e-06,0.8541683,4.863739e-05
0.046386868,2.0712614e-05,1.1652708e-05,1.7881393e-06,3.2186508e-06,0.0006427765,0.3349403,5.9604645e-07,1.9043684e-05,0.004432857
0.010659516,5.9604645e-08,0.0,2.9802322e-06,8.940697e-08,8.323789e-05,0.00022241473,1.1920929e-07,0.9967345,2.3752451e-05
4.1544437e-05,0.99656624,0.00011831522,0.00021916628,0.00025859475,0.0019466877,0.0005220175,5.9604645e-08,0.024197519,0.0099352
0.9979478,0.0,5.9604645e-08,8.34465e-07,2.9802322e-08,0.0011571944,0.00093084574,8.34465e-07,0.00023582578,0.00039625168
0.20148617,1.847744e-06,6.830692e-05,1.9699335e-05,2.0861626e-07,0.00054731965,0.0021861494,5.364418e-07,0.6199145,0.046411484
0.99168974,0.0,5.364418e-07,8.940697e-08,0.0,0.002389878,0.00042000413,0.00032132864,0.00038716197,0.00035077333
0.24087036,9.834766e-07,0.9724269,2.1457672e-06,0.0,7.6144934e-05,0.0014737844,0.003640145,3.46303e-05,0.00030857325
0.82047534,0.0,1.6361475e-05,1.0341406e-05,0.011005402,0.000733912,0.0039278567,3.2126904e-05,0.00019133091,0.0041181743
0.9932498,0.0,3.4868717e-06,8.940697e-08,0.0,0.00034561753,0.00050097704,0.0003285706,7.712841e-05,0.00039219856
0.019844472,4.1007996e-05,7.867813e-06,4.1097403e-05,0.0003860891,0.0025661886,0.7876837,1.2516975e-05,6.237626e-05,0.006310761
0.8110189,1.3113022e-06,0.58127606,1.013279e-06,3.5762787e-07,0.00020706654,0.0006659627,0.0007021129,5.3077936e-05,0.0009864867
0.047466338,0.0,2.0861626e-07,5.9604645e-08,0.0,3.0100346e-06,3.287196e-05,0.98199713,3.1083822e-05,3.2126904e-05
8.940697e-08,1.7881393e-07,3.6150217e-05,0.00021615624,3.424287e-05,0.9999995,0.0023788214,0.000120550394,0.94698024,7.4505806e-07
1.4901161e-07,2.9802322e-08,1.6152859e-05,0.9999993,1.8775463e-05,0.00022307038,0.00043025613,1.1920929e-07,2.3841858e-05,8.940697e-08
0.0022125244,0.0,9.23872e-07,2.6524067e-06,1.7881393e-07,8.904934e-05,0.00053447485,1.2993813e-05,0.9959203,0.00015547872
0.9982488,0.0,1.1026859e-06,0.0,0.0,0.001013875,0.0007683635,5.9604645e-07,0.00017988682,0.00014141202
5.632639e-06,5.9604645e-08,0.9981494,9.560585e-05,0.084230065,0.00012886524,0.0017598569,2.8312206e-06,0.00020089746,1.0430813e-06
0.0,9.024143e-05,0.9906763,0.99942136,0.00038522482,0.002898991,0.15624946,4.7683716e-07,4.348159e-05,1.1920929e-07
0.98650193,0.0,1.4007092e-06,1.1920929e-06,1.758337e-06,0.00068572164,0.00056508183,1.2755394e-05,0.001236409,0.008600533
8.165836e-05,0.0,0.00015500188,6.4969063e-06,5.9604645e-08,5.3316355e-05,0.0023226738,0.0003170669,0.99948746,2.7090311e-05
1.22487545e-05,1.6987324e-06,4.7683716e-07,1.4305115e-06,7.748604e-07,0.004492998,0.9987136,2.0861626e-07,9.614229e-05,0.0002516806
5.5134296e-05,1.013279e-06,0.99839866,0.00010794401,0.0009318888,0.0005545616,0.005682379,4.1127205e-06,0.0317024,5.6892633e-05
0.0014567673,0.0,2.9802322e-06,1.1026859e-06,2.9802322e-07,6.3329935e-05,0.00048175454,1.49309635e-05,0.9990394,2.8312206e-06
6.2584877e-07,0.96730053,0.0033635497,0.00095281005,6.482005e-05,0.99636185,0.0077533126,6.0498714e-06,0.31908855,2.9742718e-05
0.0,0.0,1.3798475e-05,0.9999999,8.33869e-05,0.00023001432,0.005877495,2.9802322e-08,0.00064867735,6.2584877e-07
0.0,0.99624693,0.00044178963,0.9999126,3.8415194e-05,0.026707053,0.0051777065,0.0,0.009458423,1.8775463e-05
0.47185624,2.9802322e-08,4.261732e-06,1.7881393e-07,0.0,0.0002027452,0.0004158616,0.004237294,0.62768894,0.00015568733
2.259016e-05,0.00037652254,0.00076791644,5.5879354e-05,3.159046e-05,0.9999984,0.0014144778,0.00028389692,0.01968655,1.013279e-05
0.9671274,0.0,3.2782555e-06,2.0861626e-07,8.6426735e-07,0.00024285913,0.00033700466,0.00067567825,0.0015139878,0.0012837946
1.1920929e-07,2.8789043e-05,0.953289,0.00080549717,0.00043821335,0.99962664,0.0045837164,5.4597855e-05,0.09155148,1.8000603e-05
0.03482583,0.0,2.4437904e-06,1.2218952e-05,0.0,0.0013133883,0.0008725226,0.00083243847,0.97285205,0.0002734065
0.0,4.440546e-06,8.404255e-06,0.99999976,0.4647842,0.00062033534,0.0018861592,3.5762787e-07,1.7017126e-05,1.1920929e-07
0.00010442734,0.0,4.172325e-07,2.6524067e-06,0.0,4.416704e-05,0.00031527877,2.1457672e-06,0.99989104,2.026558e-05
0.9657162,0.0,1.50203705e-05,9.953976e-06,1.5199184e-06,0.0008254349,0.0004287064,0.00042939186,0.0016543269,0.0291183
4.4703484e-07,8.940697e-08,1.4901161e-07,0.9999993,0.00014105439,0.00077325106,0.00028207898,0.0,0.007938594,8.940697e-08
0.98246,0.0,3.221631e-05,3.874302e-06,1.1920929e-07,0.0021731853,0.0012372136,5.6028366e-06,0.0065636337,0.0019110739
1.1920929e-07,1.9073486e-06,1.9669533e-06,0.0,0.0,8.940697e-08,0.0002309084,6.136298e-05,1.0699034e-05,0.9993465
0.0,7.635355e-05,5.4240227e-06,0.999991,4.4703484e-07,0.0016777515,0.9329126,8.940697e-08,7.870793e-05,2.9802322e-07
2.9802322e-08,3.105402e-05,0.0008484721,0.00016483665,0.07105008,0.99999833,0.0045161247,0.00026583672,0.0005670786,1.0728836e-05
0.9910134,0.0,7.688999e-06,8.34465e-07,7.4505806e-07,0.008636177,0.0009739101,1.731515e-05,5.248189e-05,0.0001912117
1.7881393e-07,3.5762787e-07,0.00013661385,3.963709e-06,5.364418e-07,0.0076926947,0.00051024556,4.7296286e-05,0.0027312934,0.8149373
0.0014359951,0.0,2.0861626e-07,1.0311604e-05,1.1026859e-06,0.00024864078,0.0019878745,1.1354685e-05,0.9979826,0.0001488924
0.0006366372,0.0,3.2782555e-07,9.1433525e-05,1.1920929e-07,0.00025364757,0.001344949,4.172325e-07,0.99941,1.7851591e-05
0.03391099,0.0,1.1920929e-07,5.9604645e-08,5.9604645e-08,0.00010728836,0.000213027,2.5331974e-06,0.9779271,0.00019523501
0.014797807,9.992719e-05,6.2584877e-06,7.599592e-06,3.1590462e-06,0.007682234,0.42763716,2.5302172e-05,0.001336515,0.004298657
0.05209422,1.1920929e-07,8.0913305e-05,5.1259995e-06,1.1026859e-06,0.0005246997,0.005697727,0.87493896,0.009282976,0.0035719275
0.014401674,0.00013682246,0.82482004,5.662441e-07,2.0861626e-07,0.00017529726,0.0006786585,0.027895093,0.00035470724,0.01141116
0.0012803674,0.0,0.0,1.013279e-06,0.0,0.00013828278,0.00068068504,9.23872e-07,0.9975611,5.054474e-05
8.940697e-06,0.99869895,0.00059068203,0.00011906028,8.940697e-06,0.0044080615,0.0011648536,2.3245811e-06,0.0018799007,0.0010468066
1.7881393e-07,0.0021430552,0.0023355186,0.9999447,0.025529295,0.0029788315,0.021109253,0.0,0.04381004,9.000301e-06
0.002250135,9.7215176e-05,0.0008904934,1.7106533e-05,1.552701e-05,0.00014674664,0.00026339293,0.0,0.019456416,0.9434794
0.1809223,0.0,4.0233135e-06,2.3841858e-07,0.0,3.4868717e-06,9.444356e-05,0.9514854,4.6104193e-05,2.2828579e-05
3.2782555e-07,9.23872e-07,0.00013202429,0.99999785,0.0039523244,0.00068607926,0.0024106503,2.3841858e-07,0.12450856,1.4901161e-07
0.96456015,0.0,4.8428774e-05,9.23872e-07,8.34465e-07,0.00059747696,0.0009499788,4.2647123e-05,0.017847836,0.0012184083
0.99782115,0.0,1.6391277e-06,2.9802322e-07,0.0,0.00018537045,0.00022634864,7.1525574e-07,0.0002604425,3.5852194e-05
0.9967301,0.0,2.5331974e-06,2.0861626e-07,1.1920929e-07,0.000995785,0.00094518065,1.5437603e-05,0.00032827258,0.00066417456
0.9510189,0.0,3.0100346e-06,5.9604645e-08,0.0,0.0006439984,0.00025433302,2.1547079e-05,0.053572744,0.004016906
2.5629997e-06,2.1725893e-05,0.042366832,0.00015860796,0.6018265,0.24436748,0.0044676065,1.013279e-06,0.995555,3.7550926e-06
8.33869e-05,1.1920929e-07,0.00043994188,1.4513731e-05,1.2516975e-06,0.9999996,0.0020327568,0.00019925833,0.0036557019,1.7285347e-06
0.99555445,0.0,1.4901161e-07,2.2649765e-06,1.7881393e-07,0.0012396276,0.0011056066,2.1755695e-06,0.0004800558,0.0016809702
0.9183513,0.0,4.8577785e-06,4.261732e-06,1.4513731e-05,0.0002719164,0.00030821562,5.850196e-05,0.00020876527,0.22690025
0.9974852,0.0,8.940697e-08,1.4901161e-07,0.0,0.00033029914,0.0005686879,4.425645e-05,2.2292137e-05,0.00029167533
1.758337e-06,0.0,8.940697e-08,0.0,0.0,5.9604645e-08,0.000121444464,0.0,1.0251999e-05,0.9999112
0.00092473626,8.139014e-05,0.13240996,5.438924e-05,3.516674e-06,0.00034222007,0.023020416,0.00014832616,0.99698424,6.490946e-05
0.0014479458,9.23872e-07,0.99071103,4.082918e-06,1.847744e-06,0.00041663647,0.0006439984,3.0696392e-06,0.0011681914,0.00037366152
0.025791705,8.0406666e-05,0.000117987394,4.798174e-06,7.301569e-06,0.002710253,0.48852056,0.00013834238,0.7596228,0.0038515925
0.00030434132,2.9802322e-08,1.5228987e-05,7.6174736e-05,0.97187144,0.008266479,0.0003618598,1.7881393e-06,0.0020272434,1.5705824e-05
0.58986384,2.9802322e-08,1.3917685e-05,5.7816505e-06,3.2782555e-07,0.00021541119,0.00052410364,0.0034092367,0.010172784,0.14222026
0.00038343668,0.0,2.3841858e-07,0.9999719,5.9604645e-08,0.00060373545,0.00065228343,0.0,0.00030264258,1.7881393e-07
5.9604645e-08,0.0,0.0035799742,6.604195e-05,0.024700075,1.5318394e-05,0.018529683,0.00012394786,0.99976766,5.275011e-06
0.9972503,0.0,8.940697e-08,2.9802322e-08,0.0,0.0007032752,0.00026261806,1.1920929e-07,0.0006170571,0.00017130375
0.6525321,2.9802322e-08,7.340312e-05,1.7285347e-06,1.0430813e-06,0.00025054812,0.0008968115,0.031015635,0.043141574,0.021673948
0.9811252,0.0,5.066395e-07,7.748604e-07,2.9802322e-08,0.0010194778,0.0012014806,2.682209e-07,0.015720904,0.00074857473
6.0737133e-05,0.0,2.0861626e-07,2.3841858e-07,1.1920929e-07,1.8775463e-06,0.00015994906,1.7881393e-07,0.9999497,2.3841858e-07
7.748604e-07,0.9995202,5.841255e-06,0.0004117489,1.4007092e-06,0.00046765804,0.000105947256,0.0,0.998346,1.5795231e-06
0.9992015,0.0,2.3841858e-07,0.0,0.0,0.00017628074,0.00018978119,5.9604645e-08,2.2441149e-05,0.00014057755
0.332637,3.5762787e-07,0.9082389,1.4811754e-05,2.0563602e-06,0.00047260523,0.0017901063,0.00017929077,0.00561291,0.00011512637
2.0861626e-06,5.403161e-05,0.0008484423,0.9998313,0.0010451078,0.0056659877,0.02563864,2.8312206e-06,0.8747246,3.874302e-07
0.9830517,0.0,1.5199184e-06,3.2782555e-07,0.0,0.00014641881,0.00024190545,0.005171448,7.173419e-05,0.00040203333
1.257658e-05,0.0,0.99989355,0.0003451705,0.000854373,0.0001603663,0.0037804544,1.0281801e-05,0.02484274,1.0967255e-05
0.00011178851,3.284216e-05,7.626414e-05,2.4408102e-05,1.5377998e-05,0.0017862618,0.9962871,2.9176474e-05,0.20055908,0.0015753508
5.3942204e-06,7.1942806e-05,0.0011204183,1.180172e-05,1.9699335e-05,0.0002860725,0.013263166,1.2516975e-05,0.047007143,0.91533375
0.9916967,0.0,2.3841858e-07,1.7881393e-07,1.1920929e-07,0.0006400943,0.001503408,1.4305115e-05,0.00033801794,0.0010488927
0.01568991,7.748604e-07,0.0010922849,1.7285347e-06,5.364418e-07,0.97943556,0.006045133,4.23193e-06,0.0007183254,9.715557e-06
8.940697e-08,0.9753959,0.00011122227,0.99960166,5.662441e-07,0.010163784,0.0027773082,0.0,0.9846214,2.7418137e-06
1.0699034e-05,0.00032517314,0.00081408024,7.0005655e-05,3.7431717e-05,0.99985623,0.093584955,5.2034855e-05,0.0337992,0.0004989207
1.3411045e-06,8.940697e-08,0.96591496,1.2695789e-05,3.4570694e-06,5.3346157e-06,0.00029933453,0.9729216,0.00018846989,3.120303e-05
0.00025489926,2.9802322e-08,4.8846006e-05,1.4901161e-06,0.0,8.711219e-05,0.00080639124,0.0019936562,0.87137175,0.07069942
2.0384789e-05,0.9976991,0.0002797246,0.0004798174,9.611249e-05,0.01577428,0.0006790459,4.172325e-07,0.08103344,0.002414167
0.0,2.115965e-06,0.9885356,0.99971366,0.00086659193,6.67572e-05,0.0014643669,2.9802322e-08,0.98850834,0.0
2.6524067e-06,0.0,1.5258789e-05,8.940697e-07,0.0,1.8894672e-05,0.0014876425,0.00012874603,0.9996126,0.00026109815
0.0,4.4733286e-05,0.0007908046,0.9999902,0.98613274,0.96880794,0.0063896477,2.8908253e-06,0.00015795231,0.0
0.97389287,1.1920929e-07,4.3332577e-05,2.9802322e-07,8.6426735e-07,0.0004274845,0.00047442317,1.8298626e-05,0.00040256977,0.018029183
0.9963497,0.0,5.662441e-07,1.2218952e-06,2.9802322e-08,0.0011438131,0.0005374253,9.179115e-06,4.9859285e-05,0.0002245605
1.0997057e-05,5.8323145e-05,0.39368474,1.4394522e-05,2.5123358e-05,0.9999183,0.0046882927,0.0016842782,0.0005353093,0.00019806623
0.0024379492,0.0,6.651878e-05,3.0696392e-06,0.0,7.301569e-06,0.00028705597,0.99898493,1.8537045e-05,8.7320805e-05
2.9802322e-08,1.1920929e-07,0.00046268106,4.1127205e-06,8.651614e-05,1.0,0.00033041835,2.7030706e-05,0.0035574138,1.4901161e-07
0.010850787,2.9802322e-08,0.00013795495,1.13248825e-05,3.5762787e-07,0.9954884,0.0014254451,3.361702e-05,0.016635746,0.00011047721
5.9604645e-08,2.7507544e-05,0.002037853,5.5491924e-05,2.8014183e-05,1.0,0.0039423406,9.059906e-06,0.016668767,1.0043383e-05
0.00013378263,1.1920929e-07,0.0005594492,1.937151e-06,2.115965e-06,7.772446e-05,0.0022901297,0.00010290742,0.08493379,0.94003403
1.6987324e-06,8.940697e-08,0.99994564,0.000120937824,0.00023368001,0.00026023388,0.0018257797,0.002047211,0.00030964613,4.87864e-05
5.3346157e-06,0.0,6.2584877e-07,0.9999894,5.9604645e-08,0.00012794137,0.00084224343,8.046627e-07,1.3381243e-05,3.874302e-07
0.49418557,0.0,6.452203e-05,8.517504e-05,9.298325e-06,0.007951915,0.0011368692,5.7816505e-06,0.057244837,0.049232036
0.99923927,0.0,8.940697e-08,0.0,0.0,0.00019183755,0.0001077652,1.3113022e-06,2.1219254e-05,9.5427036e-05
0.0008742511,1.1920929e-07,0.00018009543,2.5451183e-05,2.9355288e-05,0.9999918,0.0011574328,0.00048342347,0.03147596,0.000100553036
0.0045005083,3.0100346e-06,0.00015431643,4.708767e-06,1.1026859e-06,0.0046124756,0.41948834,4.172325e-05,0.067617685,0.0010736585
5.811453e-06,0.21229053,0.0060302615,8.612871e-06,0.00028023124,0.010795116,0.00021106005,5.310774e-05,0.040230513,0.010442108
0.042367935,0.0,3.0398369e-06,5.9604645e-08,0.0,0.95444024,0.0026108027,3.0726194e-05,0.0013413429,9.402633e-05
0.9208752,0.0,1.937151e-06,1.3232231e-05,3.4570694e-06,0.00037878752,0.00061005354,0.000330925,0.019837946,0.016944677
0.07158202,1.4305115e-06,0.00024345517,4.7683716e-07,2.026558e-06,7.0005655e-05,0.0014244318,0.00069719553,0.00119403,0.96846604
0.00056889653,2.0861626e-06,8.3982944e-05,0.00011715293,3.1858683e-05,0.9824078,0.0052036643,7.066131e-05,0.18480521,0.0019569993
0.16257074,4.7683716e-07,0.004559666,1.9699335e-05,9.062886e-05,0.00069615245,0.016026914,0.1286541,0.0045980513,0.034480333
0.005205065,1.1920929e-07,2.6226044e-06,1.9967556e-06,2.3841858e-07,0.96176106,0.0029620528,1.090765e-05,0.051670164,0.007904738
0.9851457,0.0,2.2649765e-06,0.0,0.0,2.0742416e-05,8.031726e-05,0.0019850135,4.3213367e-06,4.157424e-05
0.536187,2.9802322e-08,1.7881393e-07,8.34465e-07,0.0,0.00017642975,0.00025081635,2.3961067e-05,0.54541725,0.0011077821
1.7374754e-05,3.2156706e-05,0.98437464,1.14142895e-05,2.360344e-05,0.99923456,0.008271337,0.00026848912,0.0011829138,5.7816505e-06
0.98392224,8.940697e-08,3.990531e-05,1.3709068e-06,3.9041042e-06,0.0013013184,0.001503706,1.463294e-05,0.003970176,0.0025096834
1.1920929e-07,0.00733459,3.2007694e-05,0.9999757,0.0048132837,0.030368298,0.48477075,2.3841858e-07,0.00093212724,2.9295683e-05
0.99514556,0.0,4.7683716e-07,1.7881393e-07,0.0,0.0013306439,0.00023129582,7.4505806e-06,0.0001321733,0.001969874
9.894371e-06,1.8179417e-06,8.136034e-06,0.9999844,3.2782555e-07,0.00037908554,0.0021330416,0.0,0.0004785061,1.9073486e-05
0.98921615,0.0,8.940697e-08,8.940697e-08,0.0,0.0001039505,0.00016960502,2.9802322e-07,0.008037001,0.00025868416
5.7071447e-05,3.2186508e-06,3.1292439e-06,9.685755e-06,1.4007092e-06,0.0002361238,0.0069715083,1.4841557e-05,0.99098366,0.0035798252
1.0430813e-05,0.00015547872,0.0015566051,9.179115e-06,1.013279e-06,0.99999833,0.009009302,3.9041042e-06,0.0059577227,5.7548285e-05
8.940697e-08,5.2452087e-06,1.4990568e-05,0.9999997,0.0018462837,0.000736326,0.005268097,5.364418e-07,0.00022259355,1.4007092e-06
0.9961811,0.0,9.23872e-07,1.6987324e-06,1.1920929e-07,0.0012978315,0.0019000769,6.2584877e-07,0.00040778518,0.00016757846
1.4543533e-05,0.0,8.940697e-08,8.6426735e-07,5.9604645e-08,3.0726194e-05,0.00015571713,1.4901161e-07,0.99997306,9.834766e-07
0.0797959,5.662441e-07,0.9853579,3.4570694e-06,2.3245811e-06,0.0007452667,0.0050875545,0.00047406554,0.00044241548,3.245473e-05
6.726384e-05,0.99833417,5.1170588e-05,6.663799e-05,1.9013882e-05,0.006419897,0.000113129616,1.7881393e-07,0.0035975277,0.0008710921
0.99588317,0.0,2.9802322e-07,1.4901161e-07,2.9802322e-08,0.0003851056,0.00038549304,7.1823597e-06,0.0006195903,0.00017336011
0.004500985,5.9604645e-08,6.5863132e-06,3.874302e-07,0.0,0.00021162629,0.001786083,1.3232231e-05,0.99893975,1.1980534e-05
0.9806138,0.0,1.0192394e-05,9.834766e-07,1.129508e-05,0.00036936998,0.0005238354,6.070733e-05,0.007392198,0.00017535686
2.9802322e-08,0.00041651726,0.9724258,0.21791038,0.00035867095,0.0050605536,0.58947134,1.2010336e-05,0.97522473,7.987022e-06
0.057673037,0.0,5.364418e-07,7.1525574e-07,1.4901161e-07,9.807944e-05,0.00020816922,6.249547e-05,0.9623606,3.0040741e-05
0.99251586,0.0,7.1525574e-07,6.854534e-07,2.4437904e-06,0.0011966228,0.0011662841,3.1292439e-06,9.351969e-05,0.0008136034
0.6279868,0.0,3.5762787e-07,0.0,0.0,8.6426735e-07,5.90086e-05,0.5525013,0.00011762977,5.826354e-05
0.09122589,8.940697e-08,4.7683716e-07,1.1920929e-07,0.0,0.0013237894,0.38416076,8.6426735e-07,0.00015547872,9.4771385e-06
0.76277363,1.0728836e-06,1.2814999e-06,3.9339066e-06,8.940697e-08,0.0018880963,0.0016004145,2.4437904e-06,0.42900825,0.0017048419
0.93176806,8.940697e-08,1.6391277e-06,5.662441e-07,1.7881393e-07,0.00023972988,0.00039702654,1.1920929e-07,0.11897093,0.0026379526
0.00092947483,0.0,5.9604645e-08,0.0,0.0,1.6868114e-05,0.00018405914,1.5795231e-06,0.99657047,0.00018426776
0.30315006,8.940697e-07,0.00011768937,2.2560358e-05,7.301569e-06,0.0018112957,0.090239495,0.011231363,0.000849545,0.056972235
1.66893e-06,0.0,0.0003067553,1.0788441e-05,6.854534e-07,1.2755394e-05,0.0029518604,6.9737434e-06,0.9999752,1.2010336e-05
0.0,0.0,4.041195e-05,0.9999904,0.99933004,2.7477741e-05,0.00014302135,1.013279e-06,0.00086838007,0.0
0.83272827,0.0,9.357929e-06,5.9604645e-08,4.172325e-07,0.0011897385,0.0003464222,2.7120113e-06,0.019508213,0.017426223
0.8821744,2.0861626e-07,0.0030499995,2.3841858e-07,5.9604645e-07,0.00055506825,0.0007751882,0.00013193488,0.0213826,0.0059737563
0.35819036,5.9604645e-08,2.8163195e-05,4.23193e-06,0.0,0.0017609298,0.0017508864,0.00015372038,0.46903938,0.00406909
9.953976e-06,1.2516975e-06,2.0861626e-07,2.4735928e-06,1.5199184e-06,0.0035670698,0.99830556,7.1525574e-07,0.00089246035,0.0038969219
0.00020307302,0.0,0.0001243949,4.529953e-06,4.529953e-06,6.80089e-05,0.00095683336,0.9897411,0.0025275648,0.0011886954
1.7881393e-07,6.8843365e-06,8.0019236e-05,0.9999926,1.9311905e-05,0.0006377101,0.0014637709,3.2484531e-06,0.00023555756,1.2725592e-05
1.2367964e-05,5.6028366e-06,1.4305115e-06,3.7908554e-05,1.6093254e-06,0.9002495,0.92558134,2.682209e-06,0.0031051636,0.009830445
3.4868717e-06,5.9604645e-08,0.004853219,0.00021976233,0.53088266,0.00096943974,0.050641328,5.120039e-05,0.9791469,0.00021266937
2.8342009e-05,5.9604645e-08,0.9999149,0.00019878149,1.6123056e-05,0.0003270805,0.007158816,1.2636185e-05,0.08323324,8.285046e-06
1.898408e-05,0.0,1.5497208e-06,5.364418e-07,0.0,2.2858381e-05,0.00066545606,1.4007092e-06,0.99995095,3.9041042e-06
0.99840677,0.0,3.5762787e-07,1.4901161e-07,0.0,0.0005007684,0.0005185902,4.7385693e-06,0.00015741587,4.9203634e-05
0.9916754,2.9802322e-08,1.013279e-06,2.7120113e-06,1.1920929e-07,0.0014959574,0.0024577081,7.3611736e-06,0.00033581257,0.002266109
0.00010073185,0.0,1.1920929e-07,0.99999285,2.3841858e-07,0.00021559,0.0001808703,1.1920929e-07,1.0102987e-05,5.9604645e-07
4.094839e-05,0.0,8.34465e-07,0.99999547,2.8908253e-06,0.00025352836,0.00073605776,2.9802322e-08,1.0460615e-05,8.940697e-08
0.0031317174,0.0,4.9203634e-05,1.8775463e-06,1.6838312e-05,6.777048e-05,0.0022390187,2.0682812e-05,0.9929698,1.963973e-05
0.9967724,0.0,3.5762787e-07,6.854534e-07,0.0,0.0004248023,0.00039565563,2.9802322e-07,0.00075370073,7.984042e-05
0.98467404,8.940697e-08,3.4213066e-05,3.5762787e-07,5.9604645e-07,0.0013493896,0.0018994808,6.005168e-05,0.0014654398,0.001992911
0.045920104,4.4703484e-07,4.172325e-07,8.046627e-07,9.536743e-07,0.0019785166,0.27640355,2.9802322e-07,0.0011867583,0.00022813678
0.00022262335,8.4638596e-05,0.0005927086,0.0003233254,4.518032e-05,0.0049763024,0.9621287,0.00021058321,0.000472337,0.0015797615
0.90536094,4.7683716e-07,0.00012379885,3.758073e-05,1.1622906e-06,0.01655963,0.0015020967,3.552437e-05,0.075014085,0.0010888577
0.01411584,0.0,1.3709068e-06,1.2516975e-06,0.0,0.0006508529,0.9372518,2.0861626e-07,0.00091552734,0.00012636185
1.937151e-05,8.940697e-08,0.00011879206,9.23872e-07,1.6003847e-05,0.00011602044,0.006635636,0.00016236305,0.9375222,0.02763766
0.796842,0.0,4.4703484e-06,6.854534e-07,1.1920929e-07,0.0002514124,0.00033670664,7.793307e-05,0.44308612,0.002342552
5.1289797e-05,0.0,1.4901161e-07,2.3454428e-05,0.0,2.9295683e-05,0.00048726797,1.7881393e-07,0.9999342,2.771616e-06
7.1525574e-07,0.99801046,5.108118e-05,0.001448214,3.4570694e-06,0.0006892085,0.005281806,0.0,0.995785,3.1918287e-05
0.0008465946,0.0,6.854534e-07,9.983778e-06,1.4901161e-07,0.00034603477,0.0007276833,1.4901161e-06,0.9953239,0.0016562939
7.092953e-05,0.0,0.9999037,1.6361475e-05,4.23193e-06,0.00016373396,0.0023213923,1.9878149e-05,0.05291301,2.3543835e-06
7.2300434e-05,0.9951917,0.0005302131,0.087617576,3.8206577e-05,0.0067356825,2.7388334e-05,4.7683716e-07,0.015125155,0.00069853663
0.48273343,0.0,5.4836273e-06,1.4901161e-06,5.9604645e-08,0.0013840795,0.0012209117,1.3113022e-06,0.6183238,0.0027199388
9.23872e-07,0.99281645,3.0100346e-06,0.0014279187,0.0,0.00078490376,0.0021648705,0.0,0.9947389,0.00024741888
1.2278557e-05,0.9978199,6.0915947e-05,0.0060465634,0.000415951,0.002292931,0.0029075742,0.0,0.634729,0.00048488379
6.1541796e-05,0.8448933,0.039503634,0.0007966459,0.00018191338,0.0041279197,0.0038670003,9.536743e-06,0.00074130297,0.027296543
8.940697e-08,2.9802322e-07,0.00035950541,1.7613173e-05,4.1484833e-05,1.0,0.0015725493,3.0398369e-06,0.02014023,9.536743e-07
2.682209e-06,0.76615345,0.017622948,0.0001424253,0.00028294325,0.0023890734,0.07369903,0.00025048852,0.00025302172,0.00447309
3.963709e-06,1.66893e-06,0.9846266,6.28829e-06,5.6922436e-06,5.2899122e-05,0.0007061362,2.208352e-05,0.8055749,1.5795231e-06
0.8447748,4.172325e-07,8.401275e-05,2.3841858e-07,1.3709068e-06,0.00021827221,0.00047400594,0.0005033314,4.720688e-05,0.5828512
0.0,2.1994114e-05,0.0013050735,0.953306,0.38628674,0.9999895,0.014275283,7.4505806e-07,0.022887379,2.9802322e-07
0.823648,0.0,1.4513731e-05,2.631545e-05,0.011036575,0.0016063154,0.0017080903,2.3245811e-06,0.027386397,0.00049474835
0.0,0.00043061376,2.2381544e-05,0.9999978,0.000115573406,0.035955697,0.032286257,5.9604645e-08,0.27598006,2.9802322e-08
0.042123467,0.0,7.367134e-05,7.0929527e-06,2.9802322e-08,6.687641e-05,0.00030884147,0.987563,6.642938e-05,0.0019833148
0.84016776,5.9604645e-08,6.765127e-05,1.9073486e-06,5.9604645e-07,9.855628e-05,0.0004891753,0.028955132,0.009210736,0.005839169
0.8386571,2.6524067e-06,0.0048703253,1.13248825e-05,1.3411045e-05,0.0021366477,0.006220281,0.008915544,0.0028721988,0.014777273
0.9956499,0.0,9.23872e-07,8.6426735e-07,0.0,0.00073966384,0.0006391406,1.1473894e-05,0.00026923418,0.0006351769
1.758337e-06,0.0,8.940697e-08,0.0,0.0,5.9604645e-08,0.000121444464,0.0,1.0251999e-05,0.9999112
0.049126714,5.9604645e-08,1.770258e-05,6.815791e-05,1.0728836e-06,0.000118911266,0.047180176,0.14951521,0.07976219,0.0012746155
0.00012239814,0.0,3.2782555e-07,2.8312206e-06,2.0861626e-07,7.644296e-05,0.0010524094,6.2584877e-07,0.99977183,4.8577785e-06
0.0,4.9471855e-06,0.00018137693,0.9999877,0.01639536,0.00016131997,0.009433717,1.1920929e-07,0.0009173453,9.536743e-05
0.0051287413,0.0,0.001565516,1.9043684e-05,0.013523668,0.0012258887,0.0026585758,0.0013417304,0.678815,0.0015979707
2.9802322e-08,0.007162839,0.001113683,0.99998194,0.0018511713,0.0020302236,0.017386049,3.2782555e-06,0.07417369,1.3709068e-06
1.8835068e-05,0.0,1.4901161e-07,2.592802e-06,3.2782555e-07,5.170703e-05,0.000736475,2.682209e-07,0.9999143,6.5863132e-06
0.9967865,0.0,5.364418e-07,2.9802322e-08,0.0,0.0004298985,0.0004056692,9.23872e-07,0.002055496,0.00012657046
0.32704037,4.7683716e-07,0.00022438169,2.926588e-05,8.940697e-08,0.006631285,0.10884753,4.4882298e-05,0.00025191903,5.0634146e-05
0.99603724,0.0,3.516674e-06,0.0,1.4901161e-07,0.00029549003,0.0004979074,0.00029069185,3.7431717e-05,0.0019773543
0.0,0.0013051927,0.0017650723,0.999894,0.8838695,0.9965534,0.14402914,8.6426735e-07,0.00066682696,2.9802322e-08
0.03242615,9.23872e-07,0.015640885,8.076429e-06,2.9802322e-07,0.00012263656,0.0011447966,0.0109986365,0.00026899576,0.7109898
2.2649765e-06,0.0,2.2232533e-05,0.99999976,1.013279e-06,8.946657e-05,0.0003657341,5.9604645e-08,1.9550323e-05,5.364418e-07
0.010594487,2.9951334e-05,4.172325e-07,0.0,2.9802322e-08,0.0009146929,0.96892583,2.1845102e-05,0.00010487437,0.00072944164
0.15939811,0.0,1.6182661e-05,0.0,0.0,1.2546778e-05,0.00022530556,0.962606,1.8924475e-05,7.072091e-05
2.5629997e-06,2.9802322e-08,3.6120415e-05,0.99999875,0.0016357005,0.0008601546,0.0026097596,4.7683716e-07,0.0057314336,5.9604645e-08
1.8507242e-05,0.9510083,0.0001090467,0.00027152896,2.5331974e-06,0.00724864,0.022477001,7.1525574e-07,0.6762313,0.0012907982
2.9802322e-08,0.0,1.3113022e-06,1.1622906e-06,0.0,3.2782555e-07,2.2947788e-06,1.2546778e-05,3.156066e-05,0.9999969
1.4275312e-05,2.9802322e-07,0.0003492236,3.1888485e-06,1.4305115e-06,0.00010681152,0.0014334321,1.7732382e-05,0.15849143,0.9791248
0.85089314,0.0,2.9802322e-07,2.9802322e-07,2.0861626e-07,0.00013574958,0.00034371018,7.748604e-07,0.38371915,1.5825033e-05
1.5199184e-06,2.0861626e-07,0.00011947751,1.6063452e-05,6.5863132e-06,1.0,0.0031425655,2.2053719e-06,0.021586627,3.4570694e-06
0.0,3.2782555e-07,0.00020721555,0.9999997,0.9982594,0.00014778972,0.00050762296,8.940697e-08,3.5136938e-05,0.0
0.014585495,0.0,4.172325e-07,9.834766e-07,0.0,4.1127205e-06,6.914139e-05,0.9918306,2.4408102e-05,0.00019297004
0.00033909082,0.0,1.7881393e-07,5.9604645e-08,0.0,0.00011971593,0.00037568808,2.0861626e-07,0.99914694,0.00013199449
0.9973124,0.0,1.1920929e-07,8.940697e-08,0.0,0.00016087294,0.00058045983,6.645918e-06,1.874566e-05,0.0001783967
0.0014490783,0.0,7.897615e-06,0.00013244152,3.0994415e-06,1.7642975e-05,8.8483095e-05,0.9376838,0.009796023,0.0002117157
3.194809e-05,0.0,0.9999733,0.00011575222,0.00022268295,0.00032660365,0.0021097958,1.296401e-05,0.0010133684,2.95043e-06
0.00016182661,0.0,2.3841858e-07,3.5762787e-07,0.0,3.0249357e-05,0.00022107363,2.592802e-06,0.99991137,1.6987324e-06
4.786253e-05,1.9192696e-05,1.3113022e-06,2.938509e-05,8.940697e-07,0.03938806,0.9842878,2.3841858e-07,0.032844067,0.0059554577
0.001029253,0.0,2.6524067e-06,8.34465e-07,0.0,7.2062016e-05,0.0005045533,6.5267086e-06,0.98346496,0.008181274
1.4007092e-06,1.3738871e-05,0.00024715066,3.5464764e-06,2.0205975e-05,0.99999994,0.0022275746,5.671382e-05,0.006360084,4.23491e-05
0.93526524,0.0,7.4505806e-07,2.9802322e-08,0.0,1.1146069e-05,0.00010186434,0.013677478,0.008465618,0.00061923265
0.97652316,4.172325e-07,0.00021961331,1.2814999e-06,8.940697e-08,0.0005418658,0.0027558208,0.0011428893,0.0009595752,0.0030821264
0.00027003884,1.7881393e-07,3.993511e-06,1.1920929e-06,1.3411045e-06,4.7683716e-05,0.00087824464,5.9604645e-08,0.9993632,0.00016647577
0.00015839934,1.1026859e-06,1.1920929e-07,5.9604645e-08,0.0,0.0011640489,0.9986696,2.9802322e-08,4.23193e-06,8.273125e-05
0.9945109,0.0,2.4735928e-06,2.9802322e-08,5.9604645e-08,7.1525574e-05,0.00014668703,9.453297e-05,0.00020691752,0.0006272197
1.001358e-05,0.0,9.834766e-06,0.99999183,4.172325e-07,0.000105232,0.0011230707,4.172325e-07,8.824468e-05,7.748604e-07
5.7190657e-05,0.0,1.0728836e-06,8.940697e-08,0.0,5.453825e-06,4.673004e-05,0.9999619,3.6537647e-05,6.467104e-06
0.0012768507,0.0,1.1920929e-06,2.5629997e-06,1.7881393e-07,0.0002810657,0.0018030703,2.682209e-07,0.99852,0.00016844273
0.5170979,1.1920929e-07,0.00013270974,5.9604645e-08,1.4901161e-07,0.00055357814,0.00163427,5.2571297e-05,0.60650045,0.016557902
9.536743e-07,0.0,3.5762787e-07,8.940697e-08,0.0,4.440546e-06,9.1701746e-05,0.9999925,0.0005644858,1.4156103e-05
4.3988228e-05,2.041459e-05,1.2457371e-05,1.6391277e-06,5.990267e-06,0.0011060238,0.9901965,3.3080578e-06,0.0005040467,0.0077575445
0.009438276,0.0,0.00013333559,8.136034e-06,2.3841858e-07,0.0001617074,0.002236396,1.32620335e-05,0.9895893,0.00021967292
1.8775463e-06,0.0,8.940697e-08,0.0,0.0,5.9604645e-08,0.000121325254,0.0,1.0281801e-05,0.9999112
2.3245811e-06,2.8848648e-05,2.5600195e-05,2.8163195e-05,5.364418e-07,0.000810653,0.0040833354,1.1920929e-07,0.9585179,0.060685277
0.0177069,2.9802322e-08,1.3738871e-05,1.2427568e-05,8.940697e-08,0.00017389655,0.0048138797,1.1444092e-05,0.98327684,0.0004477799
6.28829e-06,2.95043e-06,0.00012302399,4.374981e-05,3.0636787e-05,0.9999995,0.0034755766,5.26309e-05,0.001105994,1.6629696e-05
0.9992414,0.0,8.940697e-08,0.0,0.0,0.00015193224,0.00020337105,4.7683716e-07,5.7280064e-05,0.00010022521
0.99610317,0.0,0.0,3.874302e-07,0.0,0.00021570921,0.00050857663,3.0696392e-06,0.0009164512,0.00011202693
0.99149084,0.0,1.9669533e-06,2.9802322e-08,0.0,0.00016218424,0.0002246499,0.00048795342,0.00023755431,0.0009521842
0.9933725,0.0,0.00027409196,1.7881393e-07,8.940697e-08,0.0005606711,0.0008839071,6.750226e-05,0.00014540553,0.00018244982
1.32620335e-05,0.0,2.9802322e-08,8.910894e-06,2.9802322e-08,4.8190355e-05,0.00065642595,2.9802322e-07,0.99994457,1.4603138e-06
0.9959784,0.0,2.7120113e-06,1.7881393e-07,4.172325e-07,0.00033384562,0.0005951822,1.7911196e-05,0.00013533235,0.0027012527
0.0003992617,7.7188015e-06,9.4503164e-05,1.9133091e-05,2.6226044e-06,0.99999386,0.0064353645,8.046627e-06,0.014473319,4.863739e-05
0.07581675,0.0,6.854534e-07,4.053116e-05,0.0,0.0005501509,0.00028270483,1.7881393e-07,0.9505048,6.0081482e-05
0.12222728,0.0,1.2725592e-05,2.682209e-07,0.0,7.5012445e-05,0.0006298423,0.9535126,0.00011867285,0.0019062757
0.001802355,0.97241396,0.004140258,5.13494e-05,4.056096e-05,0.0023923814,0.0022329688,1.719594e-05,0.0055883527,0.015443951
2.5838614e-05,0.998686,0.0010726452,0.00058829784,6.0081482e-05,0.003697902,0.00023654103,0.000114023685,0.026313394,0.009286433
0.9991107,0.0,0.0,0.0,0.0,0.000108122826,0.00016647577,6.467104e-06,1.4781952e-05,0.00013124943
0.00021415949,4.23193e-06,0.0001872778,8.6188316e-05,2.6166439e-05,0.9999965,0.0024788678,1.847744e-06,0.035357952,6.0796738e-06
0.9982483,0.0,7.748604e-07,0.0,0.0,0.00018110871,0.00020328164,4.172325e-07,0.0001565218,0.0004300773
5.6922436e-06,1.1920929e-07,3.3438206e-05,0.9999746,0.84211797,0.000862658,0.0009987652,1.7881393e-07,0.13346496,2.9802322e-08
0.0013229549,0.0,7.44164e-05,2.1964312e-05,3.4570694e-06,0.000100940466,0.0021967292,4.2021275e-06,0.9990753,3.9964914e-05
0.12963831,0.0,2.3841858e-07,2.9802322e-08,2.9802322e-08,9.596348e-06,5.4597855e-05,0.7253482,0.00015994906,0.006042421
0.008258283,0.0,4.3213367e-06,5.990267e-06,1.1324883e-06,9.2983246e-05,0.0002821982,1.7017126e-05,0.97754884,0.0005001128
0.9951751,0.0,2.6226044e-06,2.682209e-07,5.9604645e-08,0.0011539161,0.0005015433,1.3589859e-05,6.3836575e-05,0.0036072135
0.00025820732,0.0,0.00038266182,0.00011450052,1.4126301e-05,6.4224005e-05,0.002234608,5.5372715e-05,0.99926925,8.2194805e-05
3.2186508e-06,1.1920929e-07,1.23381615e-05,0.99999696,2.5629997e-06,0.00024044514,0.0013353229,0.0,0.06696579,6.1392784e-06
0.9973105,0.0,9.834766e-07,8.940697e-08,0.0,0.0011211634,0.0010830164,4.7683716e-07,5.5462122e-05,0.00094279647
0.02322349,2.9802322e-08,6.2584877e-07,2.95043e-06,5.9604645e-08,0.00027233362,0.00039827824,3.5762787e-07,0.99275184,0.00021481514
4.7683716e-07,1.8775463e-06,0.000120937824,3.516674e-06,5.9604645e-08,1.0,0.0022058487,4.5895576e-06,0.003134489,3.1292439e-06
0.85724163,0.0,3.874302e-06,9.655952e-06,5.364418e-07,0.0016228259,0.0014605522,1.1026859e-06,0.42943513,0.00017085671
0.0038556457,2.9802322e-08,2.4437904e-06,3.9041042e-06,0.0,0.00052410364,0.0015296638,3.5762787e-07,0.996766,0.00062188506
1.21593475e-05,0.0,1.2487173e-05,0.9999872,2.9802322e-08,0.00011900067,0.0013418198,2.8908253e-06,2.2023916e-05,8.940697e-08
0.9771683,0.0,3.874302e-07,7.1525574e-07,1.1622906e-06,0.00044298172,0.00023397803,0.0013769865,0.0019771159,0.00046873093
2.9802322e-07,3.439188e-05,0.0004390478,0.9999968,0.00072434545,0.0012438893,0.03472644,9.834766e-07,8.127093e-05,9.834766e-07
1.1920929e-07,8.940697e-08,1.1026859e-06,0.9999987,0.00026267767,0.00040632486,0.0010557175,0.0,0.0363667,1.7881393e-07
2.95043e-06,1.1920929e-07,4.7683716e-07,1.7881393e-07,2.9802322e-08,0.00027826428,0.41401976,0.9565056,0.00027528405,0.00016996264
3.7759542e-05,1.4901161e-07,6.9737434e-06,8.6426735e-07,1.3411045e-06,7.981062e-05,0.0026925504,9.089708e-06,0.046316683,0.98819613
1.7881393e-07,0.0,2.7745962e-05,0.9999973,0.012223989,0.00024113059,0.0013970733,0.0,0.00069379807,1.1920929e-07
0.35758013,1.9669533e-06,1.847744e-06,8.687377e-05,2.115965e-06,0.00039449334,0.00021022558,1.5199184e-06,0.7697025,0.0022080243
0.0,0.99925494,1.7255545e-05,0.36362118,7.122755e-06,0.0023692548,0.00019198656,0.0,0.9918504,4.23193e-06
1.5228987e-05,2.0861626e-07,3.7133694e-05,0.9999964,2.8282404e-05,0.00011897087,0.00030612946,5.364418e-07,9.214878e-05,2.8014183e-06
0.0048995614,0.0,3.6358833e-06,5.2452087e-06,4.172325e-07,7.650256e-05,0.0002734065,8.374453e-06,0.07019827,0.97868145
0.0,8.940697e-08,9.924173e-06,0.9999992,0.0015672743,0.00013017654,0.0007261634,1.874566e-05,4.324317e-05,1.5199184e-06
0.0009355247,3.6656857e-06,0.0,2.0861626e-07,2.9802322e-08,0.0027454197,0.93162185,0.0,0.5381452,0.0041244924
0.0004428327,2.9802322e-08,0.99948704,0.0001282692,0.00039947033,9.801984e-05,0.0042954683,5.930662e-06,0.013882995,1.7553568e-05
0.98651636,0.0,3.5762787e-07,2.0861626e-07,0.0,0.00046643615,0.00034835935,8.2582235e-05,7.343292e-05,0.008525401
0.96116346,1.7881393e-07,1.2814999e-06,3.993511e-06,2.9802322e-08,0.00080251694,0.000842154,4.348159e-05,0.09318325,0.0009806454
0.001623869,1.4007092e-06,0.0030919313,4.7773123e-05,5.90086e-06,0.9982528,0.0012169182,0.000119268894,0.000395149,5.1528215e-05
3.170967e-05,2.3841858e-07,4.7385693e-06,2.9802322e-08,0.0,0.0,1.6212463e-05,1.7285347e-06,0.00019711256,0.9982091
0.9964515,0.0,1.4305115e-06,0.0,0.0,0.00017786026,0.00013658404,5.26011e-05,9.563565e-05,5.555153e-05
0.0015812814,0.0,1.1026859e-06,1.6987324e-06,0.0,0.00011885166,0.00043913722,1.1324883e-06,0.9992617,1.3977289e-05
0.934729,0.0,3.0010939e-05,0.00035133958,2.0891428e-05,0.0017506182,0.0006955862,9.924173e-06,0.011974782,0.004779756
0.9846902,0.0,1.7881393e-07,8.940697e-08,0.0,0.00023752451,0.0002670288,6.854534e-07,0.021428555,0.00012511015
0.000161618,4.068017e-05,5.662441e-07,3.1888485e-06,2.2351742e-06,0.0016410947,0.99872553,2.3841858e-07,0.0052916706,0.0013688803
0.31050295,2.3841858e-07,0.83884513,2.3126602e-05,7.95722e-06,0.00023561716,0.0023148954,0.0050013363,0.00020292401,0.0010917783
0.92386794,0.0,0.00022011995,8.940697e-08,6.2584877e-07,6.452203e-05,0.0003131032,0.029060721,6.0111284e-05,0.005846679
4.1395426e-05,0.0,6.0796738e-06,2.0861626e-07,5.2034855e-05,2.7775764e-05,0.00018787384,8.967519e-05,2.0563602e-05,0.9968723
4.8696995e-05,0.9703115,0.000700593,0.00079384446,1.7344952e-05,0.01499635,0.0050216913,0.0,0.57442325,0.019755214
0.9878956,4.172325e-07,2.232194e-05,2.3841858e-07,1.1920929e-07,0.0003950596,0.0012124181,7.045269e-05,0.0002284646,0.0376769
1.2516975e-06,5.662441e-07,3.1739473e-05,0.9999874,0.008279324,0.00042441487,0.0073230267,0.0,0.41900045,1.4901161e-07
0.16105881,0.0,0.93244076,3.9041042e-06,5.453825e-06,0.0003347695,0.0020889938,0.00060895085,0.012888014,0.00026267767
0.13157734,0.0,5.3942204e-06,1.3709068e-06,2.9802322e-08,0.00055128336,0.0012007058,1.090765e-05,0.8042863,0.013079941
0.0,9.047985e-05,0.9530596,0.96504605,1.1712313e-05,0.00026226044,0.008684725,0.0,0.9989795,0.0
0.79425085,8.940697e-08,0.0008125007,1.1980534e-05,2.9802322e-07,0.00017228723,0.0017199218,0.17017889,0.0007867813,0.0007173121
0.0003272295,1.4901161e-07,0.84128773,2.4199486e-05,0.00013011694,8.136034e-05,0.0072144866,5.7786703e-05,0.9934882,5.030632e-05
0.98193944,0.0,1.0728836e-06,3.5762787e-07,4.172325e-07,0.0019943714,0.0012180805,1.3113022e-06,0.0027184188,0.0024416745
0.0,2.2798777e-05,7.2181225e-05,0.9999851,5.504489e-05,0.00015434623,0.016768485,4.887581e-06,0.98932135,0.0
1.3649464e-05,5.9604645e-08,1.5199184e-06,0.9999931,0.0,0.0002850294,0.00032502413,2.9802322e-07,1.6719103e-05,3.874302e-07
0.00019982457,1.7404556e-05,8.764863e-05,1.886487e-05,2.9802322e-07,0.00022444129,0.011918008,1.758337e-06,0.9989079,0.000112205744
0.0,0.9406191,0.0034172237,0.9999378,0.33074695,0.19040835,0.0070456862,2.3841858e-07,0.039907455,2.0861626e-07
0.9812814,0.0,1.0162592e-05,1.5825033e-05,2.3841858e-07,0.0021351874,0.0008416176,0.000497967,0.00035727024,0.004760176
6.020069e-06,0.9844265,0.0018051267,0.0011770725,8.6426735e-06,0.007627338,0.013582021,1.1920929e-07,0.941885,0.0010634363
0.9984045,0.0,8.940697e-08,1.1920929e-07,0.0,0.0009714663,0.00036808848,2.0861626e-07,0.00023496151,0.0001424551
9.62615e-05,0.0,1.1116266e-05,2.2351742e-06,6.2584877e-07,1.1533499e-05,0.00045073032,6.8843365e-06,0.999751,3.33786e-06
0.0002182424,1.847744e-06,0.00049233437,1.5497208e-06,1.4901161e-07,7.4625015e-05,0.0017905831,1.2695789e-05,0.9951221,0.0026881695
1.3709068e-06,0.9946321,0.00026488304,0.36171007,0.00067579746,0.011779219,7.981062e-05,0.0,0.21761024,0.0005249083
0.76048803,0.0,7.4505806e-07,1.7881393e-07,0.0,0.00031504035,0.00045132637,8.788705e-05,0.22302014,0.0001937151
5.9604645e-08,9.834766e-07,5.2392483e-05,0.00027415156,0.00012895465,1.0,0.0017274916,9.208918e-06,0.005545765,1.1920929e-06
0.9858813,0.0,1.8775463e-06,8.940697e-08,0.0,8.139014e-05,0.00014868379,0.0032966435,4.798174e-05,0.0017821789
9.834766e-07,0.0,1.1026859e-06,1.8775463e-06,0.0,3.3080578e-06,0.00059241056,0.9925911,0.9985676,7.4505806e-06
7.170439e-05,0.98983526,0.0065600574,0.004643768,2.30968e-05,0.0049903393,0.0069628656,9.834766e-07,0.9527117,0.0012897551
0.9464273,2.0861626e-07,2.014637e-05,5.9604645e-08,2.9802322e-08,0.00025773048,0.0008124411,1.2010336e-05,3.233552e-05,0.09428537
9.185076e-05,0.0005084276,0.0012368262,0.00028711557,2.2143126e-05,0.9996439,0.08178991,5.620718e-05,0.28371167,0.0008403361
5.9127808e-05,0.0,3.993511e-06,3.07858e-05,1.7881393e-07,3.299117e-05,0.0007341802,5.4836273e-06,0.9999221,5.364418e-06
0.00014007092,0.95831776,0.00038295984,0.097429305,3.811717e-05,0.012549937,0.0026674569,8.285046e-06,0.8048582,0.011592358
8.374453e-06,0.0003594458,0.0016918778,0.07188484,0.07164264,0.9993248,0.03627044,0.0002835393,0.0032776892,0.0004104972
1.4156103e-05,1.1920929e-07,4.6998262e-05,4.7683716e-07,3.516674e-06,0.00015804172,0.0005954206,0.0007741153,0.0030474663,0.9927729
0.030801386,4.261732e-06,0.00012543797,0.90842575,3.6895275e-05,0.002153784,0.00420174,1.9669533e-06,0.2501483,0.00040224195
0.00013399124,0.0,8.314848e-06,2.682209e-06,0.0,7.596612e-05,0.0020195842,1.1920929e-06,0.9998722,6.0498714e-06
1.0550022e-05,0.0,8.761883e-06,1.6838312e-05,4.7683716e-07,7.7188015e-06,0.0008299649,2.0951033e-05,0.99993813,4.23193e-06
1.0609627e-05,1.1920929e-07,1.9341707e-05,0.9999736,1.4901161e-07,0.00082719326,0.00439924,2.0563602e-06,0.06783384,8.493662e-06
3.6418438e-05,1.0818243e-05,0.0042291284,1.3202429e-05,5.3942204e-06,0.9999799,0.0039583445,2.0772219e-05,0.057283998,7.7039e-05
0.000251472,3.5762787e-07,0.99962366,2.6226044e-06,1.2606382e-05,0.00047937036,0.0043604374,4.8547983e-05,0.047307312,2.5182962e-05
0.9277762,0.0,7.95722e-06,2.4735928e-06,2.0563602e-06,0.0003440976,0.00036269426,0.015239924,0.000623703,0.013948798
0.00014927983,4.6610832e-05,5.364418e-07,3.5762787e-07,1.013279e-06,0.020268619,0.9410573,3.2186508e-06,0.00011438131,0.0006682277
0.99858785,0.0,5.9604645e-08,8.940697e-08,0.0,0.00019466877,0.00022178888,3.0100346e-06,0.00025641918,0.0001733005
7.3313713e-06,0.0,5.9604645e-08,0.99997807,2.9802322e-08,0.0010454059,0.001959473,0.0,0.0029588938,2.9802322e-08
0.00042560697,5.9604645e-08,1.9788742e-05,4.4703484e-07,5.9604645e-07,0.00014743209,0.82847273,9.23872e-07,0.0008353293,0.32085907
9.724498e-05,0.0,1.4901161e-07,5.1528215e-05,0.0,0.00012207031,0.0006388128,1.1026859e-06,0.9998498,1.5079975e-05
0.004631728,8.940697e-08,1.0728836e-06,6.943941e-06,2.9802322e-08,0.00204885,0.002673149,2.9802322e-07,0.96794665,0.045389414
1.1920929e-07,0.5628426,0.025953561,0.98031723,9.727478e-05,0.0005835295,0.05555439,5.9604645e-08,0.992409,1.3113022e-06
0.9928978,0.0,6.854534e-07,1.1920929e-07,2.682209e-07,0.00018802285,0.0003784299,7.173419e-05,0.00018811226,0.0017496943
0.99086463,2.9802322e-08,1.0162592e-05,4.4703484e-07,2.3841858e-07,0.0015870035,0.0036680102,4.23193e-06,0.0010172129,0.0007275641
0.98489785,0.0,1.0728836e-06,6.556511e-07,0.0,0.0012513697,0.0014538467,7.2717667e-06,0.0047205687,0.0015357435
0.00047773123,0.0,1.1026859e-06,1.3113022e-06,0.00011867285,0.00010445714,0.0019868314,2.95043e-06,0.9987266,1.0460615e-05
0.26109737,2.9802322e-08,2.2351742e-06,2.503395e-06,7.748604e-07,0.00071790814,0.0015314817,1.7881393e-06,0.9261109,0.0009098649
2.9116869e-05,0.0,1.9073486e-06,3.1888485e-06,5.9604645e-08,2.142787e-05,0.00016665459,0.9999273,0.00033518672,2.515316e-05
0.9979392,0.0,4.7683716e-07,5.9604645e-08,0.0,0.0011277497,0.00045862794,6.854534e-07,0.00021731853,8.6545944e-05
5.364418e-07,0.00028806925,0.9857587,0.015377432,0.00071537495,0.9997325,0.025773138,4.091859e-05,0.27142066,4.3809414e-06
0.3126527,0.0,1.1920929e-07,1.2785196e-05,2.3841858e-07,0.00043803453,0.0010834336,6.943941e-06,0.91545296,2.759695e-05
0.6037792,1.7881393e-07,0.0017225742,5.120039e-05,6.9737434e-06,0.0002873838,0.003001988,2.2351742e-05,0.0022070706,0.00081527233
0.0014328957,0.0,0.00047543645,5.185604e-05,0.0025525093,9.7990036e-05,0.0048113167,1.1891127e-05,0.9930446,0.0004925728
3.4719706e-05,0.0,4.4703484e-07,9.739399e-05,0.0,5.5730343e-05,0.00043556094,2.2351742e-06,0.9999047,1.3321638e-05
0.0036085844,4.172325e-07,3.0577183e-05,6.556511e-06,0.00024858117,0.007981807,0.8315091,8.34465e-07,8.544326e-05,0.00073826313
0.005617708,0.0,5.066395e-07,6.854534e-07,0.0,0.00021103024,0.00042772293,2.592802e-06,0.9867388,0.0022538602
0.98484,0.0,1.847744e-06,6.2584877e-07,1.7285347e-06,0.00011739135,0.00012916327,8.46386e-06,6.878376e-05,0.019214272
0.9896959,0.0,9.536743e-07,1.7881393e-06,4.7683716e-07,0.0008633733,0.0010828674,1.4960766e-05,0.00021359324,0.0039463043
0.003200084,0.0,1.4901161e-07,2.682209e-07,2.682209e-07,3.400445e-05,0.00019958615,0.99567294,0.00020354986,0.00015041232
2.1606684e-05,1.6391277e-06,1.9907951e-05,0.00017011166,1.8298626e-05,0.99998695,0.002895832,4.6491623e-06,6.28531e-05,3.1113625e-05
0.0013516843,3.5762787e-07,1.3321638e-05,8.583069e-06,5.9604645e-08,0.0002873242,0.013231605,1.4960766e-05,0.9961493,0.00021216273
0.000118047,2.9802322e-08,2.8908253e-05,3.2782555e-07,4.351139e-06,1.9967556e-05,0.0005810559,5.066395e-07,0.9980344,0.00053575635
2.682209e-07,2.5331974e-06,0.99090433,0.00010454655,7.033348e-06,0.00028830767,0.019362241,1.1622906e-06,0.9979421,5.9604645e-07
0.0,0.00017416477,3.3974648e-06,0.9999912,2.5629997e-06,0.00851503,0.07650539,0.0,0.7900144,2.5331974e-06
1.1920929e-07,0.0,1.0728836e-06,0.0,0.0,8.940697e-08,1.2904406e-05,0.0,2.3841858e-07,0.9999983
0.07013285,1.1920929e-07,0.0011177957,0.00010409951,0.0004118085,0.00024235249,0.0043897927,9.089708e-06,0.83871984,0.00043118
0.033712953,4.7683716e-07,0.00047144294,1.9520521e-05,6.0141087e-05,0.0009314716,0.010183394,0.0010179579,0.039138347,0.12259558
0.98370457,0.0,2.7030706e-05,1.7881393e-07,2.9802322e-07,9.146333e-05,0.00043693185,0.0023418963,6.8962574e-05,0.002836585
0.99017674,0.0,1.6391277e-06,5.066395e-07,8.940697e-08,0.00049740076,0.0009679198,6.1661005e-05,0.00046375394,0.004316509
0.0010946691,0.30639416,0.0028176308,6.273389e-05,3.233552e-05,0.03535199,0.15034539,0.00021979213,0.108106345,0.17662674
0.0001578331,3.5762787e-07,0.00030374527,7.534027e-05,1.0967255e-05,0.00021889806,0.0060472786,2.4735928e-05,0.024609715,0.98408806
7.4505806e-07,8.940697e-08,0.999421,0.00018972158,0.16442084,5.5730343e-05,0.0023706853,1.2814999e-06,0.99368286,4.172325e-07
0.9059542,1.4901161e-07,0.18563172,1.937151e-06,2.3841858e-07,0.00019326806,0.0012597144,0.00052022934,0.00044631958,0.000100016594
5.364418e-07,0.0029515624,0.14848891,0.9993872,6.5386295e-05,0.00021803379,0.0020950735,0.0,0.91711926,2.771616e-06
9.292364e-05,0.9938383,0.001185745,0.0024227202,1.7553568e-05,0.021343648,0.006326854,1.0728836e-06,0.087278366,0.0019337833
5.51939e-05,0.0,1.7881393e-07,9.328127e-05,2.682209e-07,0.007360488,0.009120315,2.0861626e-06,0.9989358,0.0001449287
6.854534e-07,1.1026859e-06,0.9990002,0.00207752,3.939867e-05,0.21222991,0.0032756329,4.0233135e-06,0.231857,1.4901161e-07
0.7601497,0.0,1.7881393e-07,0.0,0.0,0.00010085106,0.00020158291,0.00010231137,0.20992598,6.735325e-06
0.54230255,0.0,1.758337e-05,0.0,0.0,1.9669533e-06,0.00011834502,0.3227343,0.00052168965,0.0005322397
0.9869328,0.0,1.1920929e-07,0.0,0.0,3.4570694e-06,8.764863e-05,0.00065106153,1.6391277e-06,1.707673e-05
1.1920929e-07,8.940697e-08,0.00010249019,3.0696392e-06,1.1622906e-06,1.0,0.0009352565,4.9471855e-06,0.8577033,1.3887882e-05
0.43340433,0.0,1.4603138e-06,5.275011e-06,6.854534e-07,0.0002785623,0.00071820617,6.1690807e-06,0.831662,0.00015702844
0.00570184,0.0,1.5497208e-06,2.4735928e-06,0.0,5.301833e-05,0.0002373457,8.699298e-05,0.9578693,0.0066060424
0.053749144,0.0,9.024143e-05,3.2484531e-06,2.3245811e-06,0.001767993,0.0021118522,2.9325485e-05,0.9243846,0.007422
0.0,1.8179417e-06,0.00040367246,1.1086464e-05,1.8179417e-05,1.0,0.001342833,1.4901161e-06,0.45111832,3.1590462e-06
6.854534e-07,0.014147162,0.016328484,0.013784528,0.00021257997,0.7289368,0.6275778,1.4066696e-05,0.0010175109,0.0021733046
0.9004309,1.2516975e-06,0.000218153,1.0848045e-05,1.1026859e-06,0.00031280518,0.0012050271,0.0016153455,0.00031518936,0.205987
4.1157007e-05,0.0,2.4169683e-05,1.6987324e-05,6.943941e-06,0.00016403198,0.000664562,0.9980782,0.0011091232,0.0032271445
1.2814999e-06,0.0,7.3611736e-06,0.00032866,0.9993671,9.536743e-06,0.0011071861,0.00024327636,0.014996558,0.00034865737
7.122755e-06,0.0021343231,0.0031481087,2.7120113e-06,1.1742115e-05,0.87563765,0.24816367,1.2546778e-05,0.1258044,0.024103165
0.99384224,0.0,0.0,1.1026859e-06,2.3841858e-07,0.00074988604,0.00060373545,3.5762787e-07,0.0023741424,0.00018307567
3.2186508e-06,0.0,6.854534e-07,0.9999771,1.1622906e-06,0.00038325787,0.000615716,1.1920929e-07,0.030096471,5.9604645e-08
0.0002837479,5.364418e-07,0.0020403862,1.0699034e-05,0.00067701936,0.00012931228,0.00437361,4.300475e-05,0.9854651,0.003456533
0.004968226,6.6161156e-06,0.96673036,0.00016754866,0.0017106831,0.0017415881,0.017256558,0.0067043006,0.28059798,0.00011456013
0.0013077259,8.970499e-06,6.4074993e-06,6.2584877e-07,3.874302e-07,0.0009651184,0.9917627,6.5386295e-05,0.0011031032,0.0039447546
0.51499,4.5895576e-06,1.5318394e-05,3.0308962e-05,3.874302e-07,0.0034946501,0.0059221983,3.5762787e-07,0.50391614,0.012829304
1.6212463e-05,0.0008996129,0.009490699,0.0008034706,0.00017288327,0.97292125,0.47926193,0.0002771318,0.016697139,0.0022510886
9.536743e-06,4.1127205e-06,2.9951334e-05,0.00022611022,7.31051e-05,0.9998958,0.16591787,1.0430813e-05,0.029212594,4.9352646e-05
0.9914484,0.0,9.834766e-07,2.5629997e-06,2.0861626e-07,0.0009497702,0.000507921,9.268522e-06,0.0003723204,0.0029156208
0.00018399954,2.2679567e-05,0.00051289797,1.3917685e-05,1.7881393e-07,7.712841e-05,0.0008933544,6.2584877e-07,0.012180209,0.99151677
3.1262636e-05,4.3213367e-06,0.00015959144,0.0003528893,6.201863e-05,0.9997043,0.025311977,2.2649765e-05,0.41516966,0.00016659498
0.99598193,0.0,4.172325e-07,2.9802322e-08,2.9802322e-08,0.00029665232,0.0003748536,0.00031155348,6.464124e-05,0.0004312992
2.0861626e-07,2.3841858e-07,0.9970516,0.99950385,0.00041791797,0.00018906593,0.0014994442,1.1920929e-07,0.06252813,2.9802322e-08
0.19841766,0.0,3.9041042e-06,1.5199184e-06,0.0,0.00041422248,0.0004286766,1.1950731e-05,0.9211266,0.00063738227
0.062413633,0.0,1.0251999e-05,5.364418e-07,8.940697e-08,0.00014361739,0.000808388,0.9819112,0.0008804202,0.00085654855
0.00093621016,0.0,3.993511e-06,1.9967556e-06,5.9604645e-08,2.9176474e-05,0.0003170669,0.092319936,0.00042134523,0.6547445
0.34694606,0.0,8.583069e-06,4.708767e-06,7.748604e-07,0.0019386411,0.0021324158,7.95722e-06,0.6887084,0.0012286603
0.97772205,9.4771385e-06,9.804964e-05,6.2584877e-07,3.5762787e-07,0.00094616413,0.005201906,4.518032e-05,0.00015345216,0.014098406
0.7446866,2.9802322e-08,2.4437904e-05,9.983778e-06,2.3841858e-07,0.0029253066,0.0024027228,1.2397766e-05,0.008929461,0.12719932
0.0003375411,5.9604645e-08,0.00040340424,0.00011155009,0.9987402,0.0002872646,0.0015370548,3.606081e-06,0.03158772,0.005081713
0.99688506,0.0,1.3709068e-06,1.4901161e-07,2.9802322e-08,0.00015547872,0.00023692846,2.321601e-05,1.1384487e-05,0.001109302
0.00018286705,0.023111135,0.007013768,0.0017386377,0.00026461482,0.0022281706,0.33311203,4.5895576e-06,0.8815148,0.0014482439
0.90890634,4.172325e-07,8.34465e-07,5.2154064e-06,1.7881393e-07,0.00038531423,0.0006594956,1.7881393e-07,0.3258785,7.4863434e-05
9.486079e-05,0.0,3.2782555e-07,1.4901161e-07,2.9802322e-08,0.00024721026,0.0041306317,0.0,0.99745625,0.002283901
4.172325e-07,0.9546547,0.0050626695,0.9998535,0.00045642257,0.013165146,0.07499102,2.3841858e-07,0.9267459,6.7055225e-06
0.99418736,0.0,4.6491623e-06,8.940697e-08,0.0,0.0007125139,0.00040131807,9.945035e-05,0.00012385845,0.0007686913
0.64300555,2.9802322e-08,0.00011768937,8.940697e-08,2.9802322e-08,1.758337e-05,0.00025773048,0.0055838525,5.3346157e-06,0.3534999
0.996294,0.0,2.9802322e-08,5.9604645e-08,0.0,7.176399e-05,0.00021514297,2.2888184e-05,0.00022134185,3.7431717e-05
0.9145465,0.0,3.8146973e-06,1.8298626e-05,4.172325e-07,0.0017814338,0.0022345483,2.6255846e-05,0.013189852,0.026251286
0.30953577,0.0,8.6426735e-07,4.7683716e-07,2.682209e-06,0.0007684827,0.0012039542,3.2782555e-06,0.16203335,0.38430345
0.98281306,0.0,0.00013288856,1.9669533e-06,1.1920929e-07,0.0016670227,0.006499797,9.10759e-05,0.0008536875,0.0021564662
0.99760157,0.0,1.1622906e-06,8.940697e-08,0.0,0.00022658706,4.172325e-05,2.1457672e-06,0.00034993887,0.00015336275
1.8775463e-06,0.0,8.940697e-08,0.0,0.0,5.9604645e-08,0.000121325254,0.0,1.0281801e-05,0.9999112
1.758337e-06,0.0,8.940697e-08,0.0,0.0,5.9604645e-08,0.000121444464,0.0,1.0251999e-05,0.9999112
8.6426735e-07,0.9959661,4.7296286e-05,0.8767179,9.351969e-05,0.028197676,0.0046576858,1.4901161e-07,0.0061067343,0.00031527877
0.00011044741,0.9970049,0.0023886561,0.00011757016,3.1232834e-05,0.0036500096,0.0007888377,1.1324883e-06,0.014170378,0.0037211478
4.9471855e-06,8.940697e-08,0.0026946962,0.000103622675,0.99753416,0.00018373132,0.0006093681,7.289648e-05,0.061315715,0.00012919307
0.99603933,0.0,0.0,8.940697e-08,0.0,0.00055232644,0.0004066527,2.2470951e-05,7.122755e-05,0.00019332767
1.296401e-05,8.940697e-08,1.7821789e-05,0.0006376803,5.9604645e-07,0.0014752448,0.051952034,1.1622906e-06,0.9990902,0.00020083785
0.9973953,0.0,1.2814999e-06,5.662441e-07,5.9604645e-08,0.0011426806,0.0015122294,1.6987324e-06,0.00016695261,0.00023591518
6.6548586e-05,4.4703484e-07,0.00020095706,0.999977,2.9712915e-05,0.00081166625,0.0023762882,4.4703484e-06,0.00015327334,1.14142895e-05
2.9802322e-07,0.0,0.9982322,0.00017476082,0.9617851,2.3752451e-05,0.0015693307,7.6293945e-06,0.9980295,4.172325e-07
6.0230494e-05,0.00016763806,0.009224564,0.00015041232,0.00030264258,0.002064228,0.011927456,4.5597553e-06,0.011342645,0.69968784
1.758337e-06,0.0,8.940697e-08,0.0,0.0,5.9604645e-08,0.000121444464,0.0,1.0251999e-05,0.9999112
3.8683414e-05,1.4901161e-07,2.4795532e-05,0.9999945,4.4703484e-07,0.00038281083,0.001237452,6.2584877e-07,6.714463e-05,2.0861626e-07
0.983348,0.0,1.66893e-06,1.1920929e-06,1.013279e-06,0.0034918487,0.0024126768,0.0006145239,0.00015762448,0.003665179
0.04245928,0.0,4.6789646e-05,2.115965e-06,2.3841858e-07,0.0003234148,0.00076776743,4.1097403e-05,0.9842504,0.00027400255
0.9972825,0.0,2.682209e-07,0.0,0.0,0.00036996603,0.00029829144,2.3663044e-05,2.18153e-05,0.00015667081
0.9770019,0.0,4.440546e-06,3.784895e-06,2.9802322e-08,0.0022285879,0.001162827,5.543232e-06,0.00013396144,0.0015919805
0.002339214,1.0788441e-05,1.5228987e-05,3.3974648e-06,7.4505806e-07,0.0059759915,0.9917045,0.00015845895,0.0043219626,0.00061377883
0.06904304,5.9604645e-08,3.9577484e-05,0.025355369,0.009143412,0.0015943944,0.0016439855,4.9471855e-06,0.4811732,0.005993426
0.00800854,0.0,1.7881393e-07,1.0728836e-06,2.3841858e-07,0.00017765164,0.002014786,4.7683716e-07,0.99778193,1.3321638e-05
0.9750358,0.0,8.34465e-07,6.854534e-07,1.4901161e-07,0.00017783046,0.00022503734,0.0146043,0.0003759563,0.0004810393
8.940697e-08,0.0023440719,0.11907667,0.9999966,0.0001450181,0.00062704086,0.0059977174,2.9802322e-08,0.2917202,2.2947788e-06
0.0,0.0004605353,0.00014957786,0.99999416,7.7813864e-05,0.0011134744,0.17051506,2.9802322e-08,0.9784915,5.9604645e-08
4.172325e-07,9.23872e-07,0.9978999,0.99737746,2.1636486e-05,0.0002554953,0.0011980534,4.7683716e-07,0.0008419752,3.966689e-05
0.76325476,5.9604645e-08,0.0007261336,1.4305115e-06,2.95043e-06,0.00030368567,0.0015645027,0.0044109225,0.06771207,0.0015249848
0.011814177,0.0,1.3709068e-06,6.4969063e-06,0.0,0.0016174316,0.0015834868,1.1473894e-05,0.9867938,0.0005955994
0.0034742653,8.314848e-06,1.8149614e-05,5.1498413e-05,7.1525574e-07,0.0016146302,0.024740249,9.834766e-07,0.98413575,0.009162158
0.0110428035,8.940697e-08,5.275011e-06,2.6762486e-05,1.4901161e-07,0.00023701787,0.0024640262,1.2516975e-06,0.9935398,0.0004749
0.9898908,0.0,1.9967556e-06,2.9802322e-07,9.23872e-07,0.00026586652,0.00046026707,2.8043985e-05,8.264184e-05,0.00071796775
0.0,0.0013136268,0.00010880828,0.99994874,2.0623207e-05,0.0007006228,0.02015552,2.9802322e-08,0.9873873,1.8775463e-06
8.940697e-08,0.00016745925,0.9372204,4.953146e-05,3.6388636e-05,0.00036877394,0.780536,1.0877848e-05,0.9965311,4.23193e-06
0.2166223,0.0,2.9802322e-07,1.1920929e-07,0.0,3.9458275e-05,0.0004207492,2.3245811e-06,0.9164813,2.8312206e-05
0.9971024,0.0,4.7683716e-07,1.1920929e-07,1.4901161e-07,0.0008996725,0.00089007616,2.4437904e-06,2.7060509e-05,0.00033730268
1.013279e-06,1.0728836e-06,1.758337e-05,0.9999951,9.030104e-05,0.00045767426,0.0049186647,0.0,0.087108225,4.1127205e-06
1.1920929e-07,4.4703484e-07,0.004396379,0.9999969,0.021942466,0.00036224723,0.0023144186,0.0,0.0010709465,8.940697e-08
3.2186508e-05,0.99508685,0.00040462613,2.0951033e-05,1.2278557e-05,0.0035003424,0.0019176304,4.172325e-07,0.0018903315,0.006757319
0.020832866,0.0,2.115965e-06,2.9802322e-08,2.0861626e-07,6.765127e-06,0.00045716763,3.1888485e-06,0.9924725,2.9802322e-06
2.5629997e-06,0.009089619,1.6599894e-05,0.016081214,1.6123056e-05,0.057131886,0.8020767,2.3841858e-07,0.3715772,0.011743307
0.0060994625,0.9710658,0.00019332767,2.2679567e-05,2.8908253e-06,0.0066281557,0.0008021593,0.0,0.010269791,0.0018121004
0.995123,0.0,2.0861626e-07,3.5762787e-07,0.0,0.00090166926,0.00065657496,1.937151e-06,0.00208053,0.00032266974
1.758337e-06,0.0,8.940697e-08,0.0,0.0,5.9604645e-08,0.000121444464,0.0,1.0251999e-05,0.9999112
0.009687394,1.4901161e-07,1.79708e-05,2.5093555e-05,0.0,3.489852e-05,0.00026142597,5.066395e-07,0.011189789,0.98035383
0.0009646714,2.9802322e-08,0.00016352534,1.770258e-05,2.9802322e-08,0.00064122677,0.003016919,0.0017326176,0.9964669,0.0007888973
2.7149916e-05,2.9802322e-08,0.00021585822,1.2785196e-05,0.03993979,0.00084251165,0.0032794476,1.8000603e-05,0.0046138465,0.797311
0.9983349,0.0,4.4703484e-07,0.0,2.9802322e-08,0.0011820793,0.00031864643,1.2934208e-05,2.7537346e-05,3.951788e-05
0.99806273,0.0,5.9604645e-07,2.9802322e-08,0.0,0.00028321147,0.00048062205,2.9534101e-05,2.2619963e-05,0.00034075975
0.0003953576,5.9604645e-08,4.172325e-07,8.255243e-06,0.0,0.00013542175,0.0004940629,1.847744e-06,0.9977671,0.0007723272
0.0008389652,0.105988204,0.033573538,2.1487474e-05,7.2956085e-05,0.0021648407,0.010599464,2.861023e-06,0.0023151338,0.59995794
0.00010430813,8.940697e-08,9.5665455e-06,9.536743e-07,0.0,0.00057286024,0.013227791,0.0002116561,0.94121784,0.019707412
1.6272068e-05,0.02583903,0.007905155,0.059016645,0.02172646,0.99992096,0.10617554,0.00049060583,0.41133583,6.592274e-05
9.49204e-05,8.34465e-07,0.0015417635,3.1292439e-06,1.1026859e-06,0.6569109,0.019604176,9.030104e-06,0.09133163,0.011662692
0.0054395497,0.0,3.874302e-07,3.963709e-06,1.1920929e-07,0.00020822883,0.0008005798,8.6426735e-07,0.99800944,5.6266785e-05
0.8806841,1.2308359e-05,0.0012008846,4.172325e-07,1.1026859e-06,0.00094774365,0.0009307265,0.00012412667,0.00034624338,0.21293318
0.008307636,8.940697e-08,0.99874175,1.4901161e-06,1.7881393e-07,7.2836876e-05,0.0013359785,8.612871e-05,6.1273575e-05,5.00679e-06
0.98604774,0.0,2.4437904e-06,4.3809414e-06,0.0,0.002463609,0.0007943809,1.1324883e-06,0.0020408928,0.00017276406
0.67255163,0.0,6.2584877e-07,5.9604645e-08,0.0,0.000115156174,0.0003283322,0.0058125854,0.2266278,0.0013124347
3.2484531e-06,0.9953214,0.00050118566,0.004055798,0.001257509,0.01469636,0.0010146499,8.940697e-08,0.906517,0.00024658442
3.8146973e-05,0.0,1.2516975e-06,0.9999925,2.9802322e-08,0.00023379922,0.0005504489,1.6987324e-06,6.3598156e-05,1.1622906e-06
2.0563602e-06,0.0013950467,0.10138887,0.17910114,0.02716878,0.00011199713,0.0025989115,1.4901161e-07,0.9922457,9.5665455e-06
0.99913615,0.0,3.5762787e-07,2.9802322e-08,0.0,0.0003350079,0.00014907122,4.172325e-07,1.257658e-05,5.3346157e-06
0.00090408325,2.0861626e-07,0.00058987737,1.8388033e-05,2.0861626e-07,0.9999745,0.004147768,1.31726265e-05,0.015553415,7.915497e-05
0.99776936,0.0,2.0861626e-07,0.0,0.0,0.00021666288,0.00067156553,2.6732683e-05,4.836917e-05,0.00020611286
6.2584877e-07,4.7683716e-07,7.31349e-05,2.7239323e-05,7.4505806e-07,0.9999609,0.0039089024,1.1593103e-05,0.9745222,2.142787e-05
1.8179417e-06,2.7924776e-05,6.0528517e-05,0.9999993,3.9845705e-05,0.0016880035,0.006077111,5.9604645e-08,0.0041873157,6.854534e-07
2.9802322e-07,0.984615,0.0015790462,0.9987049,0.00035649538,0.006999761,0.00079241395,2.9802322e-08,0.77303934,1.4126301e-05
2.7000904e-05,2.3841858e-06,9.790063e-05,1.2040138e-05,1.2665987e-05,0.99999994,0.0040661395,8.821487e-06,0.009541392,6.645918e-06
0.0028015673,0.0,1.4305115e-06,3.874302e-07,4.4703484e-07,2.5898218e-05,0.00016635656,5.0365925e-06,0.9991312,2.0861626e-07
0.017412305,0.0,8.940697e-08,8.940697e-08,5.9604645e-08,5.1259995e-06,7.0124865e-05,1.8328428e-05,0.9799209,0.00030517578
0.009343892,0.0,3.167987e-05,7.5399876e-06,0.088005185,0.00016278028,0.0015662313,0.00027745962,0.7778461,0.0003078878
0.0011461675,3.5762787e-07,0.0069206655,1.0550022e-05,4.082918e-06,3.325939e-05,0.0018922687,1.66893e-05,0.9969194,3.528595e-05
0.92211056,0.0,2.3543835e-05,0.0,8.940697e-08,0.00056633353,0.0009958446,0.00549978,0.0010733008,0.002451092
0.8523668,8.940697e-08,8.672476e-06,3.33786e-06,8.940697e-08,0.11531508,0.003557086,2.631545e-05,0.00076436996,0.00092321634
0.0044256747,1.4901161e-06,4.0620565e-05,5.7399273e-05,2.9206276e-06,0.0005903244,0.034923732,0.8765918,0.037799,0.025059968
0.9945916,0.0,2.0861626e-07,0.0,2.9802322e-08,0.00010636449,0.00017920136,3.3676624e-06,0.00011831522,0.006075382
0.00037154555,5.9604645e-08,0.00050479174,3.8444996e-06,1.4007092e-06,0.0002310276,0.0020275116,2.5093555e-05,0.9975339,0.0005530715
4.0233135e-06,0.99948627,6.982684e-05,0.017656386,8.496642e-05,0.004981756,0.00047397614,0.0,0.9387411,5.5402517e-05
0.0,7.4505806e-07,0.99384356,0.99994457,0.98396325,0.00016263127,0.0023072362,0.0,3.2007694e-05,0.0
6.3180923e-06,0.9973341,0.0017315447,6.687641e-05,4.5895576e-06,0.015862763,0.002025485,8.940697e-08,0.0057904124,0.0022593439
0.99445486,0.0,1.7881393e-06,1.4901161e-07,2.9802322e-08,0.000765115,0.0005392432,1.6570091e-05,0.0012535751,0.0008511543
0.0019000471,3.579259e-05,6.017089e-05,6.297231e-05,3.5762787e-07,0.0016086102,0.0042873323,1.2218952e-06,0.9935406,0.0057418346
0.062326252,0.0,6.854534e-07,4.4703484e-07,0.0,0.0007740259,0.00064474344,5.9604645e-08,0.9835855,0.00030243397
0.00017532706,9.208918e-06,1.9967556e-06,8.6426735e-06,1.4007092e-06,0.00780195,0.9970265,1.7881393e-07,0.00091052055,0.002447486
0.0041579604,0.0,1.3113022e-06,1.3411045e-06,8.940697e-08,0.00013417006,0.0008094013,0.00012612343,0.9937426,0.00013771653
5.0485134e-05,8.940697e-08,0.0018561482,4.172325e-07,3.2782555e-07,7.7188015e-06,0.0001360476,0.00066262484,0.10531941,0.9425764
0.99781966,0.0,2.3841858e-07,3.2782555e-07,0.0,0.0006816089,0.0006598532,3.516674e-06,0.00013655424,0.00015801191
0.1320785,2.9802322e-08,0.00010585785,6.8604946e-05,2.1964312e-05,0.00114277,0.002624631,1.937151e-06,0.008318901,0.86696064
0.0002680719,0.0,0.9215164,7.1823597e-06,0.021712452,0.00050136447,0.0017996728,8.702278e-06,0.0047053695,0.00012680888
0.0,5.710125e-05,4.9471855e-06,0.9999988,4.082918e-06,0.0012365878,0.5528864,1.1920929e-07,5.415082e-05,1.4901161e-07
0.99182963,0.0,8.672476e-06,2.5331974e-06,0.0,0.0011642277,0.000780195,3.951788e-05,8.660555e-05,0.00035727024
0.8428821,3.874302e-07,0.00027143955,1.847744e-06,8.940697e-08,0.0002619624,0.0006348491,0.01065281,0.00025722384,0.2077328
3.5762787e-07,0.00013750792,0.001342684,0.11146164,0.0009303391,0.9999999,0.006730944,1.6987324e-06,0.0068959594,1.013279e-06
0.0023377538,1.4901161e-07,2.0742416e-05,3.3080578e-06,1.1026859e-06,0.0013364553,0.006562561,1.642108e-05,0.0003297627,0.9100777
3.0994415e-06,0.99198925,0.0019492805,0.0008761287,5.310774e-05,0.9496951,0.00024363399,3.4570694e-06,0.07276547,6.365776e-05
0.83095706,0.0,1.3321638e-05,4.172325e-07,7.3611736e-06,0.00010314584,0.0004015267,0.030575722,2.6166439e-05,0.08192456
0.99796045,0.0,2.0861626e-07,2.682209e-07,0.0,0.00039169192,0.00025004148,7.4207783e-06,4.312396e-05,0.00017908216
0.8824973,0.0,1.7881393e-07,6.854534e-07,0.0,0.00012457371,0.0002734959,7.599592e-06,0.16179517,0.00037947297
0.2636462,1.5079975e-05,0.29493177,7.688999e-06,2.0861626e-07,0.0010473728,0.0031832457,0.0130063,0.0053587854,0.053501993
5.5998564e-05,1.4901161e-07,2.9802322e-08,3.695488e-06,0.0,8.457899e-05,0.0005865693,0.0,0.99897987,4.6491623e-05
0.9981011,0.0,2.3841858e-07,1.1920929e-07,0.0,0.00020006299,0.00024983287,1.3053417e-05,1.7136335e-05,0.000541389
0.0007058382,0.0,8.940697e-08,1.4901161e-07,0.0,7.5399876e-06,9.641051e-05,1.0728836e-06,0.99969614,3.1292439e-06
0.0168643,0.0,2.4735928e-06,1.4901161e-07,4.7683716e-07,8.0525875e-05,0.00035238266,0.00027120113,0.9918643,6.118417e-05
0.00027042627,0.0,1.2516975e-06,1.1861324e-05,9.23872e-07,8.6426735e-05,0.0010318458,1.1205673e-05,0.9996941,9.924173e-06
7.95722e-06,4.7683716e-07,9.983778e-05,1.3500452e-05,2.7418137e-06,0.9999995,0.0045751035,7.4505806e-06,0.015843213,2.3692846e-05
0.0010437667,6.80387e-05,0.0006021559,2.5480986e-05,1.5169382e-05,0.0033911467,0.9907782,1.4007092e-06,0.0001321137,4.7713518e-05
8.7320805e-06,0.99948865,6.440282e-05,0.004841447,8.34465e-07,0.0076928735,0.00013434887,0.0,0.30484664,0.0010989606
0.0014917552,0.93393934,0.00092226267,3.9488077e-05,1.5676022e-05,0.0053723454,0.0060759187,5.9604645e-07,0.002448082,0.24325919
9.030104e-06,0.80465025,0.0031095445,6.4343214e-05,5.9604645e-08,0.0008325279,0.0068365335,3.5762787e-07,0.999437,3.6895275e-05
0.043865353,0.0,0.0,0.0,0.0,8.6426735e-07,2.1904707e-05,0.9773238,3.555417e-05,3.9994717e-05
0.0,1.7881393e-07,9.924173e-06,0.9999982,0.006940782,6.210804e-05,0.0013338625,1.1920929e-07,0.023316264,2.9802322e-07
1.5199184e-06,2.682209e-07,3.5464764e-06,1.2814999e-06,2.682209e-07,0.0005687475,0.98350596,7.2717667e-06,0.0008774102,0.023314625
0.99784565,0.0,2.3841858e-07,0.0,2.9802322e-08,5.4329634e-05,0.0002130866,1.2516975e-06,7.164478e-05,6.54757e-05
0.99471134,0.0,1.1205673e-05,1.4901161e-07,0.0,0.00081798434,0.0016849935,8.4251165e-05,2.3752451e-05,5.5730343e-05
