0,1,2,3,4,5,6,7,8,9
0.9860141,0.0,2.2649765e-06,1.9073486e-06,2.0861626e-07,0.0010204911,0.0011832714,2.6524067e-06,0.0019243062,0.002083987
0.9785389,0.0,6.854534e-07,6.2584877e-07,0.0,0.00011637807,0.00022616982,0.007892132,1.22487545e-05,0.0012503266
2.1755695e-06,2.0861626e-06,0.0054697096,0.001511395,0.983189,0.9999851,0.0037381053,4.5597553e-06,0.0015432537,1.0579824e-05
0.0,1.7046928e-05,1.7881393e-07,0.9999951,6.854534e-07,0.002334565,0.93578273,2.9802322e-08,4.6908855e-05,7.4505806e-07
0.00024220347,0.0,4.7683716e-07,0.9999796,8.940697e-08,0.00038683414,0.00040400028,1.1920929e-07,0.00030204654,4.7683716e-07
0.96987545,0.0,5.066395e-07,0.0,2.9802322e-08,1.0192394e-05,7.849932e-05,0.019156396,9.208918e-06,0.00013256073
0.002396047,0.0,2.8908253e-06,1.04904175e-05,4.7683716e-07,0.0006348789,0.002429098,2.3841858e-07,0.99615175,0.00049871206
0.0,0.0,7.838011e-06,0.9999999,0.9980205,0.00040853024,0.0002604723,1.7881393e-07,1.6987324e-05,0.0
6.854534e-07,0.0,3.5762787e-07,0.38794377,1.7881393e-07,8.952618e-05,0.0011755228,3.2663345e-05,0.9999298,3.5762787e-07
7.659197e-06,3.9339066e-06,1.2814999e-06,1.4007092e-06,9.23872e-06,0.0015468001,0.99954414,3.8444996e-06,0.00091028214,0.0011269152
0.00016516447,2.9802322e-08,0.64437264,8.636713e-05,3.3468008e-05,0.00032779574,0.01303637,7.751584e-05,0.98832834,4.118681e-05
0.0035882294,0.0,2.4467707e-05,2.0861626e-07,3.2782555e-07,2.4497509e-05,0.0008482337,1.2814999e-06,0.99873286,6.556511e-07
1.8179417e-06,0.05899042,0.00011372566,0.9968339,4.7683716e-07,0.0032835305,0.0025643706,0.0,0.9517146,7.122755e-06
0.00012874603,0.9351777,0.005034983,6.613135e-05,4.8726797e-05,0.0008018315,0.00058326125,1.2814999e-06,0.008521944,0.04385349
0.1260581,0.0,1.4066696e-05,7.748604e-07,0.0,0.0002642572,0.0011585951,8.6426735e-05,0.9513885,9.846687e-05
0.008527458,0.012393832,0.0009573698,0.00017824769,0.00030052662,0.00179708,0.53113127,2.2470951e-05,0.3847185,0.014929116
2.2649765e-06,0.0,4.3213367e-06,0.9999858,2.3663044e-05,0.00037294626,0.006095022,1.1920929e-07,0.4699912,3.5762787e-07
0.9792068,1.1920929e-07,2.8192997e-05,1.3113022e-06,1.1920929e-07,0.00023421645,0.00022011995,6.3180923e-06,0.0002962649,0.0087221265
1.2516975e-06,0.0012094676,0.47565073,0.00012814999,0.004590839,0.010282546,0.8234276,0.0004734397,0.82380974,0.00026413798
1.7791986e-05,1.3709068e-06,6.2584877e-07,5.0842762e-05,8.34465e-07,0.0002399087,0.8205688,0.0002475381,0.9542527,0.00035244226
0.9976922,0.0,7.4505806e-07,0.0,0.0,0.0002786517,0.00025215745,1.66893e-05,2.6285648e-05,0.00035339594
0.024412245,1.9967556e-06,0.9202896,0.0004066825,5.364418e-07,0.00046756864,0.0013009906,0.0002104044,0.00024148822,0.000400275
0.9984766,0.0,2.9802322e-08,2.9802322e-08,0.0,9.432435e-05,0.00014591217,8.34465e-07,5.310774e-05,0.00045850873
0.01206705,4.3809414e-05,0.0009868741,0.11506495,1.1920929e-06,0.0021780133,0.0049333274,5.507469e-05,0.96867836,0.0013772547
0.0021260977,0.0,2.5331974e-06,4.798174e-06,2.9802322e-07,0.00014859438,0.00066429377,1.3113022e-05,0.9978742,6.7949295e-05
5.453825e-06,0.0022334158,0.36167434,2.8282404e-05,0.00047659874,0.94585824,0.03610328,0.008007973,0.030832171,0.0062379837
0.0018569231,0.0013184845,0.00013893843,2.682209e-07,2.0861626e-07,0.0017091036,0.3635081,4.759431e-05,0.00024065375,0.002233982
0.881474,0.0,6.8843365e-06,0.0,0.0,8.46386e-06,0.00010406971,0.17807001,1.0609627e-05,0.0016902685
0.11807346,0.0,1.129508e-05,7.5399876e-06,0.0,1.0818243e-05,0.00023204088,0.94848526,0.010720551,0.00038683414
1.1622906e-06,0.9930835,9.575486e-05,0.61769253,2.1755695e-06,0.005487412,0.011563361,0.0,0.9974891,6.7055225e-06
3.221631e-05,1.6778708e-05,6.556511e-07,8.34465e-07,2.3245811e-06,0.0019416809,0.9972654,9.536743e-07,0.0027974844,0.0024797618
1.4036894e-05,8.821487e-06,1.4901161e-07,4.172325e-06,2.0861626e-07,0.0026611686,0.9979929,8.34465e-07,0.016076922,0.00037682056
0.0073854923,1.4305115e-06,3.0696392e-06,2.2649765e-06,4.917383e-06,0.00052019954,0.9907261,2.9802322e-07,7.426739e-05,5.9723854e-05
1.7881393e-07,0.0,4.798174e-06,0.9999992,0.00010061264,0.0004887581,0.007522732,2.95043e-06,6.80387e-05,8.940697e-08
0.8213178,0.0,1.6391277e-06,2.0861626e-07,2.3841858e-07,0.0003246963,0.0008147955,2.169609e-05,0.41879532,0.00033643842
0.9983903,2.9802322e-08,2.1755695e-06,0.0,0.0,0.00024569035,6.714463e-05,3.5762787e-07,9.179115e-06,1.2814999e-05
0.93745136,0.0,9.23872e-07,5.9604645e-08,1.1920929e-07,0.0011936724,0.00078999996,3.5762787e-07,0.08946538,0.0023832917
0.9985286,0.0,1.1920929e-07,0.0,0.0,8.0138445e-05,0.00019320846,5.066395e-07,2.0205975e-05,2.2768974e-05
0.9881025,0.0,1.0430813e-06,1.1920929e-07,8.940697e-08,0.00050863624,0.00052937865,6.914139e-06,8.2075596e-05,0.016281188
0.00016647577,0.0,3.5762787e-07,5.6624413e-06,0.0,6.347895e-05,0.0007303953,1.937151e-06,0.9996637,7.688999e-06
3.3080578e-06,1.1920929e-06,0.9767641,0.00046935678,1.41859055e-05,0.0013846457,0.009046137,0.00014454126,0.9932473,1.54078e-05
0.90895724,0.0,9.536743e-07,1.4305115e-06,1.0102987e-05,0.00096163154,0.002065897,1.4901161e-07,0.13363391,0.00062316656
1.1026859e-06,7.1525574e-07,0.0054044724,6.368756e-05,3.8444996e-06,0.99999905,0.004270017,8.100271e-05,0.075072885,5.453825e-06
8.6426735e-07,0.9993335,1.8060207e-05,0.005138129,2.43783e-05,0.003841579,5.5640936e-05,0.0,0.97902375,1.6540289e-05
0.00014024973,2.9802322e-08,4.1127205e-06,4.1872263e-05,2.9802322e-08,0.00010678172,0.017033547,4.798174e-06,0.9997622,1.9788742e-05
0.0016592145,0.0,6.854534e-07,5.3048134e-06,0.0,6.3180923e-06,6.914139e-05,0.9991061,0.0019762218,0.00013160706
0.068240255,0.0,4.646182e-05,1.4901161e-07,5.9604645e-07,0.00018548965,0.0005110204,5.2452087e-06,0.9830878,6.905198e-05
0.0036280453,6.2584877e-07,0.000220716,0.016558677,0.00024402142,0.00089401007,0.0032212436,0.0006426573,0.9791156,0.00048470497
2.3245811e-05,0.99936956,0.0001398027,0.0013427734,3.221631e-05,0.004846126,7.18832e-05,0.0,0.27296495,0.0006663501
0.99872404,0.0,5.9604645e-08,0.0,0.0,0.00017377734,0.0001013577,3.5762787e-07,7.328391e-05,1.7523766e-05
0.00048065186,6.556511e-07,0.0010606349,7.8082085e-06,4.529953e-06,0.9478106,0.018526018,0.00041088462,0.0027916133,0.00012332201
8.165836e-06,0.997289,8.186698e-05,4.351139e-06,1.5199184e-06,0.0016100705,0.00030303,1.1026859e-06,0.009264052,0.000752002
9.536743e-07,4.172325e-06,0.0005630255,6.7055225e-06,2.3186207e-05,0.9999998,0.005071759,3.0100346e-06,0.5572129,1.6838312e-05
0.22490546,0.0,1.2218952e-06,1.4901161e-06,0.0,0.00038564205,0.00027909875,0.005685061,0.78398013,0.0015361905
0.98447275,1.7881393e-07,4.723668e-05,2.682209e-07,3.606081e-06,0.0005350411,0.00064235926,5.841255e-06,0.0008890629,0.0032503605
8.940697e-07,0.99988407,9.357929e-06,0.00077182055,0.00031077862,0.009816021,7.510185e-05,0.0,0.11488205,0.00028523803
0.9689137,1.1920929e-07,1.4305115e-06,4.172325e-07,0.0,0.00086700916,0.00090944767,1.0848045e-05,0.042579323,0.010459334
3.1590462e-06,0.9901649,0.024077654,6.964803e-05,8.6426735e-07,0.010358661,0.00430426,9.030104e-06,0.00080895424,0.001401782
0.9808854,0.0,1.4424324e-05,1.4901161e-07,5.9604645e-08,0.00036007166,0.00048476458,0.00016629696,0.0022467673,0.002838701
3.71933e-05,0.9961213,6.997585e-05,0.00030326843,4.7504902e-05,0.005234927,0.0015106797,0.0,0.0853056,0.002877295
0.9989109,0.0,6.854534e-07,5.9604645e-08,0.0,0.00021925569,0.00015971065,2.0831823e-05,3.8653612e-05,3.9756298e-05
0.02971679,3.5762787e-07,1.6123056e-05,4.172325e-07,8.34465e-07,0.97277606,0.0050980747,4.4703484e-06,0.31821164,0.00042286515
8.314848e-06,2.771616e-06,0.0036007166,0.0007442534,0.9940201,0.99976933,0.005729854,2.3245811e-05,0.0021935701,4.8696995e-05
7.778406e-06,4.142523e-06,0.0,2.0861626e-07,0.0,2.899766e-05,0.00077086687,0.0,0.18547645,0.9631237
0.14981297,7.8082085e-06,8.97944e-05,3.501773e-05,1.9669533e-06,0.00033020973,0.006243497,4.172325e-07,0.5100707,0.06567702
0.99613786,0.0,2.0861626e-06,2.9802322e-08,0.0,0.00018328428,0.00028139353,4.133582e-05,0.00014007092,0.00012949109
0.9965682,0.0,1.2516975e-06,5.9604645e-08,0.0,0.00019028783,0.0001269877,0.00085783005,5.7905912e-05,0.00016400218
2.2053719e-06,0.0,0.00047156215,2.1457672e-06,0.01814577,2.9802322e-06,0.0020176768,3.2186508e-06,0.99982816,9.870529e-05
0.00079348683,3.5762787e-07,0.0010365248,1.2874603e-05,1.1920929e-06,0.00027662516,0.002109319,0.19478032,0.83695304,0.0042366087
0.0045687556,0.0,5.9604645e-08,0.0,0.0,1.7881393e-07,2.1249056e-05,0.9993535,1.4662743e-05,4.23193e-06
0.16580966,0.0,6.2584877e-07,7.778406e-06,0.0,0.00042673945,0.00032505393,2.9802322e-07,0.9146235,0.00035586953
0.9967427,0.0,8.940697e-08,1.7881393e-07,2.9802322e-08,0.00033390522,0.00046640635,1.1056662e-05,0.00017875433,0.00064975023
2.861023e-06,0.0,7.0631504e-06,0.9999857,6.3180923e-06,0.0003221929,0.0012996793,1.2516975e-06,0.0013895333,2.0861626e-07
1.3530254e-05,0.0,1.4901161e-07,0.9999894,0.0,0.00033801794,0.00094377995,2.0861626e-07,0.0001270771,3.5762787e-07
1.001358e-05,0.0,2.8908253e-06,0.9999944,1.5497208e-06,0.00026842952,0.00042697787,2.9802322e-08,8.2463026e-05,0.0
0.0007481873,0.0,3.2782555e-07,2.0503998e-05,4.7683716e-07,0.00063562393,0.0052750707,1.3113022e-06,0.9963989,0.00053328276
0.50549436,0.0,2.7418137e-06,2.9802322e-07,0.0,4.401803e-05,0.00016143918,0.7833234,0.00021985173,0.0029259622
0.98630506,0.0,1.898408e-05,1.1920929e-07,0.0,0.0004515648,0.0019388199,0.0006017685,0.00023025274,0.002788037
0.9056721,0.0,6.556511e-07,5.9604645e-08,0.0,6.246567e-05,0.00014993548,0.0010774732,0.025150448,6.902218e-05
0.9135791,8.940697e-08,2.9802322e-07,0.019153684,7.867813e-06,0.0026334524,0.0011129677,1.680851e-05,0.0027456284,0.00050863624
0.99366766,0.0,8.404255e-06,2.0861626e-07,1.1920929e-07,0.00052952766,0.00036421418,0.00037783384,0.00017482042,0.0012108684
0.0030047297,0.0,1.7881393e-06,5.453825e-06,0.998131,9.614229e-05,0.00065132976,2.682209e-07,0.00027951598,1.3679266e-05
0.9963599,0.0,1.2427568e-05,5.9604645e-08,0.0,0.00049445033,0.0007852614,4.827976e-06,0.0003578961,2.05338e-05
0.9980743,0.0,0.0,1.1920929e-07,0.0,0.00055119395,0.0003158152,1.7881393e-06,7.69794e-05,0.00022485852
6.905198e-05,0.0,5.13494e-05,0.0015801489,0.00010597706,3.913045e-05,0.0010998845,0.00027903914,0.99875176,2.4437904e-06
0.9894906,0.0,4.798174e-06,2.9802322e-08,8.940697e-08,0.0001539588,0.00058811903,0.0006636381,2.7865171e-05,0.00032901764
3.963709e-06,2.9802322e-08,0.00011742115,0.00030350685,1.3709068e-06,0.8927933,0.0028649867,9.006262e-05,0.9741608,2.4735928e-05
2.9802322e-08,3.5762787e-07,2.1338463e-05,1.2010336e-05,6.3478947e-06,8.589029e-05,0.0020584762,4.172325e-07,0.0007072985,0.99950016
2.115965e-06,8.940697e-08,3.5762787e-07,0.999997,7.1525574e-07,0.0008137822,0.0009484589,0.0,0.003610015,8.940697e-08
3.2782555e-07,0.9993892,0.000110179186,0.017691046,0.08289325,0.02111876,7.146597e-05,0.0,0.22489029,5.0753355e-05
0.076833844,0.0,5.5462122e-05,1.4603138e-06,3.400445e-05,0.00024098158,0.004816711,4.87864e-05,0.9410605,0.0004619062
0.9751568,0.0,3.2782555e-07,5.066395e-07,0.0,0.00030750036,0.00032150745,2.220273e-05,0.03154084,0.00063723326
1.8775463e-06,0.0,8.940697e-08,0.0,0.0,5.9604645e-08,0.000121325254,0.0,1.0281801e-05,0.9999112
0.3872308,0.0,1.2814999e-06,5.364418e-07,1.4901161e-07,5.272031e-05,0.0002219379,0.6015072,0.0006837249,0.0047053397
2.0861626e-07,0.0007978678,0.74824065,0.00016728044,0.0010569692,0.99999994,0.004020393,0.00050753355,0.06838632,3.784895e-06
0.9765887,0.0,8.940697e-08,1.1920929e-07,0.0,5.51641e-05,0.000113368034,5.364418e-07,0.050082564,1.4126301e-05
5.969405e-05,6.237626e-05,0.81044006,8.684397e-05,0.00091436505,0.001157403,0.079654455,1.4871359e-05,0.994596,5.8352947e-05
0.8987508,0.0,4.0233135e-06,1.2844801e-05,8.940697e-08,0.00020098686,0.0012373924,0.00707227,0.0003720522,0.002584219
8.940697e-08,0.000569731,5.364418e-07,0.9999821,3.8146973e-06,0.015175611,0.4610971,1.1920929e-07,0.076279014,1.0848045e-05
1.7851591e-05,5.9604645e-08,3.8683414e-05,1.013279e-06,7.748604e-07,1.1503696e-05,0.00020292401,0.0016227663,0.002258122,0.98603487
0.99554855,0.0,5.3942204e-06,2.3841858e-07,1.1920929e-07,0.00030305982,0.00042262673,2.5957823e-05,0.00087085366,8.5800886e-05
0.98543215,0.0,2.503395e-06,1.0430813e-06,2.8014183e-06,0.0010870695,0.0026312768,1.8775463e-06,0.0036298335,0.00044059753
2.5510788e-05,0.0,3.489852e-05,2.8252602e-05,0.0022268593,8.761883e-06,0.0023558736,3.606081e-06,0.99985605,1.7225742e-05
0.03414908,0.0,1.6987324e-06,8.5532665e-06,1.2874603e-05,0.00045394897,0.000724107,4.172325e-07,0.12398076,0.63734907
0.98743886,0.0,2.026558e-06,1.4007092e-06,1.4901161e-07,0.0010897219,0.0005648136,1.7404556e-05,0.0004285276,0.00016596913
2.3841858e-07,0.90469307,0.000810951,0.9980209,8.314848e-06,0.038385868,0.019294798,2.9802322e-07,0.15403426,0.0003786385
1.847744e-06,8.34465e-07,0.00040754676,1.6123056e-05,3.5464764e-06,0.9999988,0.002013892,0.004018426,0.0021799207,2.771616e-05
6.1690807e-06,3.0100346e-06,0.0619601,0.9998802,0.0008777678,0.000803411,0.0015271306,1.7881393e-07,0.13708046,0.00041776896
0.94870174,0.0,9.268522e-06,3.9339066e-06,1.1920929e-07,0.001674056,0.0019799173,7.5399876e-06,0.020026088,0.011797935
1.7881393e-05,0.0,1.937151e-06,0.9999922,8.34465e-07,0.00070858,0.0016571581,7.4505806e-07,0.0003710389,1.1920929e-07
0.98175466,0.0,2.0861626e-07,3.5762787e-07,0.0,9.021163e-05,0.00013574958,0.0010432303,0.0005951822,7.31647e-05
5.477667e-05,8.940697e-08,0.0010980964,0.96115845,0.9991438,0.00023525953,0.0018862188,1.2218952e-06,0.0059174895,6.854534e-07
2.0861626e-07,0.99685395,4.4703484e-06,0.37437174,8.940697e-08,0.0012191832,0.00045731664,0.0,0.9982076,5.990267e-06
0.99527097,0.0,4.172325e-07,2.0861626e-07,5.9604645e-08,0.001049608,0.0027089715,1.1920929e-07,0.0004400015,0.00027561188
2.3841858e-07,5.096197e-05,0.97578824,7.1942806e-05,7.5399876e-06,0.00014624,0.0039043128,2.0563602e-06,0.9920889,4.6491623e-06
0.9349395,1.4901161e-07,0.002000451,2.0861626e-06,2.413988e-06,0.0019188225,0.0016576052,1.21593475e-05,0.007012844,0.0067089796
4.082918e-06,0.0,9.387732e-06,1.7881393e-06,1.591444e-05,0.95329446,0.017083108,6.0796738e-06,0.9322867,0.0001181066
3.7252903e-06,1.758337e-05,0.011362642,0.00011497736,4.1663647e-05,0.9999996,0.005212009,2.4020672e-05,0.04806915,6.914139e-06
7.292628e-05,5.0365925e-06,0.00016731024,0.9999286,1.3381243e-05,0.002189219,0.06339648,7.4207783e-06,0.001464963,7.778406e-06
4.4703484e-06,0.0,4.4703484e-06,1.4901161e-07,8.940697e-08,7.838011e-06,0.00012746453,0.99967766,0.0032022595,0.00028181076
0.99376345,0.0,2.3841858e-07,2.9802322e-08,5.9604645e-08,0.00026345253,0.000492841,1.3113022e-06,0.0018885732,0.0006850064
0.9972093,0.0,5.9604645e-08,1.1920929e-07,2.9802322e-08,0.00016212463,0.00017055869,1.0699034e-05,0.00016346574,0.00017428398
0.99918056,0.0,1.4901161e-07,0.0,0.0,0.00010228157,0.00019669533,6.377697e-06,2.387166e-05,6.636977e-05
0.15016887,0.0,4.7683716e-07,6.0498714e-06,0.0,0.00045877695,0.0003004372,7.542968e-05,0.90713584,0.0012987554
0.29066247,6.4969063e-06,3.0398369e-06,3.248453e-05,6.2286854e-06,0.00071406364,0.0041071177,3.874302e-07,0.18568102,0.01879704
9.211898e-05,0.0,0.0,0.0,0.0,0.0,1.9669533e-06,0.0,6.389618e-05,0.9999981
0.0010256469,3.4213066e-05,0.003370583,0.00042653084,2.4735928e-06,0.00050807,0.005497873,2.4437904e-06,0.48738706,0.19633222
7.480383e-06,0.92415607,0.010136455,0.0028667748,0.0018800199,0.003485471,0.00035375357,5.5789948e-05,0.0019198954,0.19078198
0.005238712,0.0,4.1127205e-06,2.5331974e-06,3.3974648e-06,0.0005746782,0.004723251,2.9802322e-06,0.9855535,0.00077202916
0.9509679,0.0,0.0001167655,2.861023e-06,1.6093254e-06,0.0030354261,0.002173245,2.9593706e-05,0.019540727,0.016947657
6.28829e-06,0.9987768,7.593632e-05,0.0001604855,5.120039e-05,0.012724906,0.0007840693,8.940697e-08,0.046806097,0.0002490878
0.0015572608,0.0,8.523464e-06,8.34465e-07,5.9604645e-08,9.819865e-05,0.0011412799,6.854534e-07,0.99802655,0.00019568205
0.0018357038,1.3798475e-05,1.7166138e-05,6.097555e-05,0.00058048964,0.0029250085,0.9113858,7.799268e-05,0.010145545,0.014563918
0.9762163,0.0,2.682209e-07,0.0,0.0,0.0001526475,0.00020310283,1.1920929e-07,0.013457954,0.000592649
5.9604645e-08,0.999567,3.9607286e-05,0.29307806,0.00069344044,0.005084932,6.362796e-05,0.0,0.0064840317,0.00019070506
1.1026859e-06,2.6226044e-06,0.00027608871,0.9998541,0.020724922,0.0005259216,0.002756685,6.1392784e-06,0.000351429,3.2305717e-05
0.56984556,2.9802322e-08,8.314848e-06,0.032645583,0.000292629,0.0022727847,0.0022765398,3.2782555e-06,0.029532671,0.0030699968
0.7286359,4.7683716e-07,1.2397766e-05,2.0861626e-07,0.0,0.00020366907,0.00058043003,2.7418137e-06,0.6159339,0.0013228953
0.17687014,5.9604645e-08,0.0013595223,1.1891127e-05,4.172325e-06,0.0007031262,0.0040261745,5.185604e-06,0.8152901,0.00026354194
7.390976e-06,0.0,2.771616e-06,0.0001911819,8.940697e-08,2.4855137e-05,0.00059726834,1.4305115e-05,0.99994874,1.719594e-05
0.069258094,8.940697e-08,5.066395e-06,1.1026859e-06,1.7881393e-07,0.00070238113,0.0032670796,5.671382e-05,0.92372406,0.00085768104
0.9474138,0.0,1.1920929e-07,0.0,0.0,0.00052145123,0.00057813525,4.3600798e-05,0.025841087,5.9098005e-05
0.9647771,1.1920929e-07,1.579523e-05,6.735325e-06,6.854534e-07,0.0012152195,0.0011892021,1.1086464e-05,0.007842839,0.015857488
0.9993725,0.0,5.9604645e-08,0.0,0.0,8.3088875e-05,0.00013718009,1.1324883e-06,1.9401312e-05,2.5451183e-05
9.834766e-07,1.7881393e-07,5.9604645e-08,0.9999938,2.3841858e-07,0.0038378239,0.0138582885,2.3841858e-07,0.00015601516,2.9802322e-08
0.62051094,5.9604645e-08,1.1324883e-06,6.854534e-07,0.0,0.00067189336,0.00045490265,1.6093254e-06,0.55705494,0.0023632646
0.9686418,0.0,4.1127205e-06,1.4901161e-07,0.0,5.4568052e-05,0.00035318732,0.00078728795,0.0010247529,0.0012800694
0.9981942,0.0,6.854534e-07,1.1920929e-07,0.0,0.00028005242,0.00068229437,4.8577785e-06,2.1457672e-05,0.0001489222
0.009955049,1.7881393e-07,2.7775764e-05,1.4305115e-06,5.662441e-07,0.00059363246,0.014864892,1.1920929e-06,0.96247876,0.0037823617
0.9896933,0.0,1.04010105e-05,7.748604e-07,0.0,0.0021434426,0.0006866455,1.54078e-05,0.0022081733,0.0008171201
0.6500892,0.0,6.0081482e-05,6.854534e-07,5.662441e-07,0.00089102983,0.00093600154,9.119511e-06,0.078994244,0.0099699795
0.0005236268,0.8809698,0.0027478337,4.5835972e-05,3.6001205e-05,0.004324734,0.0012866557,5.0365925e-06,0.0058969855,0.013431191
0.00045597553,1.8775463e-06,1.1920929e-07,4.5001507e-06,5.9604645e-08,0.0015599132,0.99372137,4.6044588e-05,8.225441e-06,0.00029352307
0.004195094,5.275011e-05,0.0028710961,0.0001218915,1.3321638e-05,0.9676565,0.07488179,7.209182e-05,0.2208046,0.004660636
0.0003427267,5.9604645e-08,3.6358833e-06,2.2530556e-05,1.1920929e-07,0.0010038018,0.0027493834,1.7881393e-07,0.99644864,0.0006198883
0.76223904,5.9604645e-07,1.9878149e-05,2.0861626e-07,1.1920929e-07,9.223819e-05,0.00031504035,9.357929e-06,3.8415194e-05,0.5253587
2.682209e-06,0.0,8.380413e-05,2.9623508e-05,0.06052378,4.6372414e-05,0.0023946464,0.64016545,0.52796733,0.0007327497
4.053116e-06,0.9791371,0.00057807565,0.007888228,0.0011144578,0.0074925125,0.007393539,5.9604645e-08,0.17921314,0.00037929416
5.4836273e-06,0.0,7.6293945e-06,0.9999945,5.90086e-06,0.000330925,0.00081926584,2.9802322e-08,0.000810802,2.3841858e-07
0.9988122,0.0,1.1920929e-07,2.9802322e-08,0.0,0.00027301908,0.00031784177,1.564622e-05,1.2814999e-05,7.417798e-05
0.049287796,0.0,0.0010380745,6.1392784e-06,6.3180923e-06,8.4519386e-05,0.00028076768,0.8675805,5.7131052e-05,0.0025902987
0.01335752,2.682209e-07,2.3186207e-05,1.66893e-05,0.0,0.9969469,0.0006637573,2.413988e-06,0.00861007,7.3611736e-06
3.2782555e-07,0.0,1.4901161e-07,8.940697e-08,0.0,1.7881393e-07,1.8239021e-05,1.1920929e-07,2.0563602e-06,0.9999997
7.4505806e-07,0.9967249,0.00014695525,0.00044724345,1.7881393e-07,0.0011705756,0.0004969835,0.0,0.99948466,4.172325e-06
0.0,5.5283308e-05,0.0004580915,0.9999881,0.0019345582,0.00028666854,0.03835231,1.9669533e-06,0.007231593,8.21054e-05
0.0041891932,0.0,3.85046e-05,1.6957521e-05,5.364418e-07,0.0001309216,0.0076949894,0.00011539459,0.9937669,3.0398369e-05
9.685755e-06,2.142787e-05,0.0,5.7905912e-05,1.4901161e-07,0.00017511845,0.4953805,2.0861626e-07,0.9833319,0.0008575022
0.96003824,2.0861626e-07,0.00013130903,2.2053719e-06,1.4662743e-05,0.0007503927,0.0010108948,1.0371208e-05,0.002177149,0.02057898
0.12738022,0.0,3.0398369e-06,3.1590462e-06,1.4901161e-07,0.00019004941,0.00041398406,0.0005158186,0.95360184,0.00046691298
0.00013059378,0.0,1.3709068e-06,3.6358833e-05,4.6372414e-05,0.0001745224,0.007993698,6.645918e-06,0.999309,4.5597553e-05
0.0010993481,0.0022439957,0.00016796589,0.0052801073,0.00026372075,0.08828184,0.8558194,8.85129e-06,0.008338749,0.012781352
0.99544626,0.0,7.748604e-07,1.2516975e-06,5.9604645e-08,0.0013636947,0.0009728372,1.5497208e-06,0.0002654493,0.00062036514
0.99858344,0.0,1.1920929e-07,0.0,2.9802322e-08,0.00021019578,0.0005721152,9.775162e-06,4.5388937e-05,0.0002631843
4.1633844e-05,1.7881393e-07,5.8323145e-05,6.1541796e-05,0.00026872754,3.3408403e-05,0.0023404062,0.003718555,0.019892454,0.9872811
0.68978643,1.013279e-06,8.314848e-06,1.937151e-06,1.7881393e-07,0.021907419,0.11836153,8.583069e-06,0.00019776821,0.0006085336
9.915233e-05,0.96964204,0.026453912,0.00049489737,9.62615e-06,0.0060296655,0.037861437,4.4703484e-06,0.009122193,0.013824612
0.0,2.0861626e-07,7.4505806e-06,0.9999982,0.99860585,0.00027230382,0.00080633163,5.662441e-07,0.0002542436,0.0
1.1175871e-05,2.3841858e-07,0.0,9.357929e-06,7.1525574e-07,0.0015244484,0.9997048,0.0,2.4229288e-05,6.3180923e-06
0.9868424,0.0,1.4901161e-07,0.0,0.0,1.6570091e-05,0.00019469857,0.0010596514,6.0856342e-05,0.0001784265
6.854534e-07,2.9802322e-08,0.99341035,7.212162e-06,1.6063452e-05,6.0915947e-05,0.0057706833,0.001034975,0.99730945,4.172325e-07
0.0,0.00034314394,3.9756298e-05,0.0014001727,2.4229288e-05,1.0,0.0042794645,1.4007092e-06,0.016574353,9.387732e-06
0.9911839,0.0,4.440546e-06,3.874302e-07,8.6426735e-07,0.00028711557,0.00031131506,3.5762787e-06,0.005206287,0.00067204237
7.739663e-05,0.0002116561,0.008725375,2.092123e-05,1.0997057e-05,0.9999405,0.037174165,0.000985384,0.0009613335,0.00018379092
0.000113248825,0.0,3.5762787e-06,1.2814999e-06,0.0,4.6998262e-05,0.001213342,7.7456236e-05,0.99934137,4.5865774e-05
5.9604645e-08,0.0002642274,0.0002348721,0.014389485,1.0639429e-05,0.3839611,0.94119585,3.5762787e-07,0.18955836,0.0005097687
3.3527613e-05,0.99495614,0.00084269047,0.3915636,8.621812e-05,0.013154328,0.0018496215,4.172325e-07,0.53207344,0.00183478
1.3411045e-06,3.6358833e-06,4.094839e-05,8.583069e-06,1.7285347e-06,0.9999999,0.0017816722,1.5497208e-06,0.048308015,1.013279e-06
0.107402354,2.297759e-05,0.0002682805,2.6851892e-05,9.685755e-06,0.0002799332,0.0011549592,1.9967556e-06,0.00083878636,0.9435358
0.74049234,0.0,2.3841858e-07,9.23872e-07,2.682209e-07,0.0007697642,0.0020145774,8.940697e-08,0.5705952,0.0003194511
0.5400504,2.9802322e-08,6.854534e-07,8.34465e-07,0.0,7.343292e-05,0.00016611814,0.0016705394,0.78565156,0.0001604855
2.9802322e-07,0.00023144484,0.00078231096,0.00017184019,8.672476e-06,0.99728334,0.011825711,2.0861626e-07,0.017863482,0.0038450062
1.4901161e-06,5.492568e-05,0.6290484,3.3944845e-05,0.0,2.8073788e-05,0.0008248687,2.3841858e-07,0.99967706,2.0861626e-07
0.000813663,5.990267e-06,0.0045233965,3.1113625e-05,0.08203784,0.0009070933,0.0011705756,5.662441e-07,0.43429485,0.0030099452
5.6922436e-06,7.2717667e-06,0.0011520982,0.00034865737,4.4882298e-05,0.9997952,0.006741464,4.3809414e-06,0.9583852,5.13196e-05
0.9835852,0.0,1.5795231e-06,1.3113022e-06,2.9802322e-07,0.0005827546,0.00093507767,0.0001283884,0.0019958913,0.0014542937
0.8800211,0.0,3.2156706e-05,9.536743e-07,2.2947788e-06,0.0010454059,0.0028792024,1.5795231e-06,0.01625526,0.013225377
0.00068217516,6.645918e-06,0.0007466078,2.30968e-05,4.595518e-05,0.998577,0.013274223,0.0030561984,0.0049725473,0.004042119
1.6093254e-05,1.1920929e-07,0.9935713,2.9802322e-05,2.3692846e-05,9.858608e-05,0.009195626,7.891655e-05,0.99101794,5.0365925e-06
2.592802e-06,0.0007133782,0.7542454,2.8073788e-05,0.0002797842,0.7752156,0.3287156,3.963709e-05,0.8487969,0.0001039505
4.827976e-06,0.00048324466,0.0003927648,0.97820157,0.004008919,0.0012138784,0.9319942,1.1920929e-07,0.17953882,0.00034883618
0.024673313,5.155802e-06,0.0006208122,0.78036475,0.9502045,0.014598697,0.009936601,4.938245e-05,0.0014032125,0.0005528927
0.0010543764,5.9604645e-08,0.9989233,2.1576881e-05,5.3942204e-06,0.00014087558,0.0046031177,0.00013419986,0.000113129616,4.7951937e-05
0.16504842,0.0,1.6391277e-06,1.2814999e-06,2.0861626e-07,0.00023764372,0.0008354485,3.874302e-07,0.9359641,0.00015446544
1.7881393e-06,0.038108826,0.024035007,0.999879,0.05684799,0.0023170114,0.00093856454,7.1525574e-07,0.0019940436,4.23193e-06
0.998788,0.0,3.874302e-07,0.0,0.0,0.00039801002,0.00044855475,5.364418e-07,3.5732985e-05,3.1232834e-05
0.05702421,1.7881393e-07,2.682209e-07,8.34465e-07,1.4901161e-07,0.0050931573,0.77343714,2.7120113e-06,0.0023845434,0.0015642345
4.2289495e-05,0.0,1.6391277e-06,6.482005e-05,0.004955679,1.0341406e-05,0.0009943843,1.4603138e-06,0.9993416,1.603365e-05
3.993511e-06,0.0,1.1920929e-06,0.9999862,0.0,0.00019204617,0.0011058152,6.2584877e-07,0.00017496943,1.758337e-06
0.98787844,0.0,1.3411045e-06,1.4901161e-07,6.7055225e-06,0.00021123886,0.00056129694,5.722046e-05,0.00022959709,0.00023955107
0.21864098,1.013279e-06,4.5597553e-06,0.72273403,2.4437904e-06,0.0019640625,0.00032263994,0.00010916591,0.0012572706,0.0036897361
0.0013715029,0.0,1.7285347e-06,4.172325e-07,0.024236351,8.755922e-05,0.0005567372,2.2947788e-06,0.99088323,9.834766e-07
6.094575e-05,1.1324883e-06,0.00016263127,1.1622906e-06,3.8444996e-06,0.99999857,0.0025672019,3.0398369e-06,0.021220893,0.000114291906
0.99505484,2.9802322e-08,5.9604645e-08,1.22487545e-05,2.9802322e-07,0.00084909797,0.0006763339,4.172325e-07,0.00010809302,0.00055247545
2.115965e-06,0.0,7.69496e-05,0.9999966,6.645918e-06,2.6524067e-05,0.00040617585,5.9604645e-08,8.165836e-06,0.0
0.71452206,3.2782555e-07,0.00024697185,5.9604645e-08,0.0,0.00010025501,0.00048729777,5.8054924e-05,0.00043815374,0.19599694
1.92523e-05,0.0,5.662441e-07,2.0861626e-07,0.0,1.32620335e-05,0.00031912327,0.9999608,0.0011966228,4.0978193e-05
8.493662e-05,8.34465e-07,2.8908253e-06,8.910894e-06,7.212162e-06,0.0068559945,0.9896538,8.195639e-06,0.11048132,0.00065234303
7.003546e-05,0.0,1.4901161e-06,2.682209e-07,1.7881393e-07,7.7188015e-06,0.00018048286,0.0,0.99993885,5.364418e-07
0.9986044,0.0,2.9802322e-08,5.9604645e-08,0.0,0.00014957786,0.00032123923,7.748604e-07,4.556775e-05,1.2218952e-05
0.010709435,1.1920929e-07,0.00061801076,0.00011733174,2.6226044e-06,0.0013023913,0.0026975274,1.2457371e-05,0.90911126,0.09840649
0.9263425,0.0,1.5199184e-06,0.0,0.0,0.5462113,0.0003684461,1.8179417e-06,8.067489e-05,0.00010341406
0.00024956465,0.0,6.2584877e-07,0.99996233,2.0861626e-07,0.00034588575,0.00078195333,2.9802322e-08,0.0005348623,2.2351742e-06
0.42981964,1.2814999e-06,0.00024095178,4.5001507e-06,3.6656857e-05,0.00046244264,0.0021315813,6.1392784e-06,0.12580392,0.15249449
0.0001256764,0.7655215,0.04632792,0.0003707707,7.814169e-05,0.0103769,0.071762055,0.0006007254,0.30293864,0.012648284
0.9974928,0.0,3.5762787e-07,5.9604645e-08,0.0,0.00019836426,0.00024735928,3.4868717e-06,0.00031632185,0.00023013353
0.97158414,0.0,1.8268824e-05,1.3113022e-06,2.592802e-06,0.00027489662,0.00031375885,0.0040864944,0.00032669306,0.0013419092
7.1525574e-06,2.0086765e-05,7.793307e-05,0.99999106,1.1712313e-05,0.006056428,0.05145532,8.34465e-07,0.00057151914,2.3245811e-06
0.9985083,0.0,2.9802322e-08,0.0,0.0,6.759167e-05,9.983778e-05,3.5762787e-07,0.00037020445,4.7534704e-05
8.6426735e-07,2.1010637e-05,0.0005096495,5.5879354e-05,2.3722649e-05,0.99996495,0.014121592,4.6521425e-05,0.01923728,0.00041395426
5.364418e-07,0.9996803,1.9848347e-05,0.00013422966,9.23872e-07,0.0001834929,3.20673e-05,0.0,0.99621576,1.8775463e-06
0.9977986,0.0,1.7881393e-07,2.0861626e-07,0.0,0.00068485737,0.00043085217,8.34465e-07,0.00047633052,9.4503164e-05
0.99671066,0.0,5.9604645e-08,1.4007092e-06,0.0,0.0006352365,0.0006610155,8.85129e-06,0.00022178888,0.00021603703
0.041981608,3.874302e-07,6.020069e-06,2.2053719e-06,3.3974648e-06,0.004240781,0.58109194,6.2584877e-07,0.00013381243,0.00079894066
0.0048766434,0.0,3.5464764e-06,9.23872e-07,0.0,9.030104e-06,0.00032281876,0.9975267,0.00017347932,0.00018596649
6.0141087e-05,2.8699636e-05,2.0742416e-05,2.1785498e-05,6.854534e-07,0.99583673,0.15038994,4.2915344e-06,0.016531855,0.0030574799
4.887581e-06,0.9006207,9.855628e-05,0.00021749735,4.172325e-07,0.8579819,0.002614051,0.0,0.35050535,3.5643578e-05
0.99668056,0.0,3.1888485e-06,0.0,5.9604645e-08,0.0006556511,0.001437366,7.8082085e-06,8.97944e-05,0.0012683868
9.5665455e-06,0.0,1.1026859e-06,0.05735323,8.046627e-07,4.339218e-05,0.00075784326,5.662441e-07,0.9998766,5.9604645e-08
0.99752474,0.0,2.3841858e-07,2.9802322e-08,0.0,0.00012013316,0.00022342801,1.0997057e-05,0.00020262599,0.00016507506
1.3709068e-06,0.0,1.2606382e-05,0.9999981,0.048069775,0.0010038614,0.0004942417,1.013279e-06,0.0003013909,0.0
0.0036796033,1.719594e-05,7.033348e-06,5.2839518e-05,5.9604645e-08,0.9971956,0.049022138,2.8312206e-06,0.0029890537,0.00017720461
0.95472026,0.0,2.592802e-06,0.0,0.0,1.564622e-05,0.00017261505,0.05633074,4.5359135e-05,0.00022175908
7.390976e-06,4.6163797e-05,6.6161156e-06,5.453825e-06,1.3411045e-06,0.00028055906,0.94542027,1.8179417e-06,0.96000314,0.0020835996
0.92732155,8.940697e-08,7.927418e-06,3.5464764e-06,2.232194e-05,0.00097358227,0.001507014,2.527237e-05,0.004855454,0.12279412
0.9245292,0.0,8.34465e-07,0.0,1.847744e-06,6.0796738e-06,0.0001295805,4.172325e-06,0.00091838837,0.0018428564
0.9946958,0.0,6.2584877e-07,0.0,0.0,4.348159e-05,0.000110685825,0.00042024255,6.708503e-05,3.6001205e-05
0.074490696,0.0,5.364418e-07,1.0728836e-06,0.0,0.00017160177,0.00026410818,1.8179417e-06,0.9831398,3.72231e-05
0.07291067,2.9802322e-08,1.6897917e-05,7.1525574e-07,3.874302e-07,0.000628978,0.0019284487,1.9669533e-06,0.9065925,0.0023885667
0.002451092,3.5762787e-07,0.00015807152,5.9068203e-05,7.069111e-05,0.00017142296,0.0027079582,7.778406e-06,0.09674212,0.9175494
0.4397061,0.0,2.3543835e-06,1.2516975e-06,2.9802322e-08,0.0021807551,0.0047291517,9.924173e-06,0.6158544,0.0007787645
4.172325e-07,0.0,4.5359135e-05,0.9999987,2.9802322e-07,0.000104665756,0.00361678,5.364418e-07,0.0014181137,9.834766e-07
0.000500381,3.5762787e-07,3.963709e-05,1.013279e-06,1.4305115e-06,0.00081050396,0.01651609,8.636713e-05,0.97100383,0.0021802485
2.0861626e-07,1.0728836e-06,0.00014212728,0.9999987,8.255243e-06,0.00023007393,0.0044502616,0.0,0.046010613,0.0
5.9604645e-07,0.0,1.1920929e-07,0.9999993,4.172325e-07,0.00020581484,0.00034365058,1.1920929e-07,3.46601e-05,0.0
0.9927613,0.0,1.3113022e-06,0.0,0.0,0.00012457371,0.00020131469,0.00026270747,0.00022161007,0.00014045835
0.009751558,0.0,7.95722e-06,3.963709e-06,0.002480954,0.0004875958,0.00029081106,0.00014948845,0.97126985,7.4237585e-05
1.7881393e-07,1.9192696e-05,7.286668e-05,0.88711476,0.99699414,0.0058509707,0.8113423,2.592802e-06,0.009487033,2.1666288e-05
0.99855036,0.0,2.3841858e-07,5.9604645e-08,0.0,0.00044363737,0.0004182756,1.9401312e-05,2.6226044e-05,2.7626753e-05
9.5009804e-05,0.0,1.2814999e-06,1.9669533e-05,4.172325e-06,4.7922134e-05,0.0011472404,4.7683716e-07,0.99864167,0.00053957105
0.00033405423,0.0,1.180172e-05,0.00069344044,9.834766e-07,7.778406e-05,0.0012367964,1.6987324e-06,0.9993997,3.6656857e-06
4.3988228e-05,0.0,1.2814999e-06,0.00040864944,8.34465e-07,0.00019398332,0.0015619099,7.092953e-05,0.99984753,1.6361475e-05
4.7564507e-05,0.9977642,0.00039955974,0.0004968047,4.8190355e-05,0.002627492,0.0033631027,2.0861626e-07,0.6855626,0.002200365
2.4348497e-05,2.3812056e-05,1.3440847e-05,0.99949324,0.0010923147,0.023710102,0.0023917258,1.1920929e-06,0.0002925694,4.9471855e-06
1.66893e-06,2.3692846e-05,0.9850843,8.314848e-06,1.5556812e-05,0.999936,0.00955084,2.297759e-05,0.006974131,6.2584877e-07
0.16559878,2.0861626e-07,0.003074646,8.6426735e-07,0.0,0.7143066,0.002035141,0.0012902021,0.00038012862,0.00052300096
5.364418e-07,1.7136335e-05,0.02005896,2.0593405e-05,4.9471855e-06,0.99999976,0.0018000007,3.1292439e-06,0.015438348,5.930662e-06
0.9857421,0.0,1.4662743e-05,8.940697e-08,0.0,0.0002028048,0.000336051,0.00021982193,0.0009485781,0.00025695562
0.00011727214,0.0,8.940697e-08,9.647012e-05,0.0,5.954504e-05,0.00028285384,8.383393e-05,0.99971783,3.170967e-05
0.0028811097,0.0,8.532405e-05,4.7683716e-07,0.0,0.00019577146,0.0010468364,6.6161156e-06,0.99784327,0.00030961633
0.0013328195,0.0,1.2427568e-05,1.1920929e-07,1.4901161e-07,1.4603138e-05,0.0008248687,3.4868717e-05,0.9929874,0.00036287308
0.69501835,0.0,8.34465e-07,1.937151e-06,0.0,0.0004555881,0.0002515912,0.000105172396,0.70440996,0.0002863109
9.7960234e-05,5.662441e-07,3.325939e-05,8.255243e-05,1.7881393e-07,8.997321e-05,0.0033200383,8.940697e-08,0.9997398,2.0861626e-05
0.0009700954,0.76847625,0.021068126,0.00060355663,0.0009545088,0.012360096,0.034779638,7.212162e-06,0.04361528,0.2642402
5.364418e-07,2.0861626e-07,0.001673609,0.9999825,0.00677529,0.00020104647,0.001671493,4.7683716e-07,0.06917828,0.0
0.9973657,0.0,2.9802322e-07,0.0,0.0,0.00064721704,0.00058463216,9.23872e-07,0.0017431676,4.4971704e-05
0.00089868903,0.0,1.5199184e-06,7.927418e-06,2.9802322e-08,0.00012260675,0.00038582087,3.8981438e-05,0.99931777,4.044175e-05
0.07718837,0.0,5.275011e-06,8.404255e-06,8.6814165e-05,0.0008960664,0.0025113523,2.977252e-05,0.95763725,4.6253204e-05
3.0696392e-06,0.0011067688,0.012784034,0.0014329255,1.0579824e-05,0.00944677,0.054743886,2.95043e-06,0.9973244,0.00020584464
0.045163035,0.00044983625,0.018585026,1.8328428e-05,2.3841858e-07,0.004524678,0.5628543,0.0018455088,0.0012039542,0.06889981
0.9666276,0.0,3.784895e-06,3.5762787e-07,6.854534e-07,0.0005326271,0.0013998151,2.0563602e-06,0.001591593,0.042334437
0.99681187,0.0,2.9802322e-08,1.7881393e-07,5.9604645e-08,0.00071683526,0.0002309978,1.6391277e-06,7.390976e-05,0.00076040626
0.9813467,0.0,3.5762787e-07,6.2584877e-07,8.940697e-08,0.000595659,0.0008188188,4.0620565e-05,0.0009609163,0.0036707222
0.9902781,0.0,5.662441e-07,0.0,0.0,3.695488e-05,0.00020870566,0.00015363097,0.00022909045,0.00028455257
1.2367964e-05,0.00945881,0.96388936,1.835823e-05,2.554059e-05,0.007145047,0.11101824,0.00021529198,0.0021996498,0.0018798113
0.0044819415,0.0,0.021854281,4.7296286e-05,5.364418e-07,0.00032794476,0.0024673045,0.0008574128,0.9921545,9.509921e-05
6.7561865e-05,0.24157551,0.04050064,0.07539618,0.00021731853,0.016885102,0.017222762,9.742379e-05,0.12602332,0.41803396
0.9863174,0.0,2.3841858e-07,2.0861626e-07,2.9802322e-07,0.00017285347,0.0002861619,2.682209e-07,0.0057234466,0.00018629432
0.91130656,0.0,1.1920929e-07,1.4901161e-07,1.4901161e-07,0.0003426671,0.00029483438,6.854534e-07,0.05371806,0.0032646656
0.0,0.0020830333,0.13322842,0.9999995,0.004133761,0.0029892027,0.038600028,0.0,0.00086298585,2.3841858e-07
1.2874603e-05,0.99884415,0.00044837594,0.00022533536,2.0235777e-05,0.012337029,0.0008802712,2.9802322e-07,0.31693277,0.00036242604
0.00013619661,0.0,9.745359e-06,3.0696392e-06,4.172325e-07,2.3007393e-05,0.0006929636,8.940697e-08,0.9997517,4.053116e-06
0.9973946,0.0,6.854534e-07,1.4901161e-07,2.9802322e-08,0.0008139312,0.0014034212,1.4007092e-06,0.00021106005,0.0003092587
2.783537e-05,1.4901161e-07,2.5898218e-05,0.018028527,4.8309565e-05,0.00035598874,0.008340329,4.1127205e-06,0.99938655,2.2500753e-05
7.18534e-05,0.0,7.8469515e-05,8.821487e-06,0.012607574,4.1872263e-05,0.0025838017,0.00036635995,0.99906516,2.861023e-06
0.9923068,0.0,4.7683716e-07,2.9802322e-08,0.0,0.000112622976,0.00026097894,5.7548285e-05,0.0010011792,0.00012919307
5.364418e-07,6.9737434e-06,0.0008406937,2.476573e-05,3.644824e-05,0.9999057,0.011370957,3.3974648e-06,0.7847377,0.00015243888
2.0861626e-07,0.9499979,0.056684464,0.014572918,0.00016319752,0.9999634,0.00141868,2.7418137e-06,0.24525413,2.861023e-06
0.005153775,0.0,3.2782555e-06,0.9817325,1.1920929e-06,0.0004274249,0.0006365478,5.236268e-05,0.00023174286,4.762411e-05
0.987344,0.0,6.2584877e-07,5.9604645e-08,0.0,3.668666e-05,0.00024929643,0.00016888976,0.00081542134,5.209446e-05
0.0009852648,0.0,4.0620565e-05,0.0,0.0,1.5497208e-06,0.0006648004,0.9972427,0.0016527474,0.0016605854
0.015606016,1.603365e-05,0.7367399,8.85129e-06,2.0861626e-06,0.00048282743,0.0025942028,0.0010443628,0.36865687,0.0011138618
0.80513716,0.0,1.1622906e-06,0.0,2.9802322e-08,4.6491623e-06,2.2113323e-05,0.23124307,2.8163195e-05,0.0020779371
0.99802744,0.0,1.1920929e-07,1.1920929e-07,2.9802322e-08,0.00040504336,0.00035247207,2.3841858e-06,7.793307e-05,0.00031480193
5.9604645e-08,0.0043911636,0.0009459555,0.9996698,0.00013053417,0.002267003,0.55641454,8.940697e-08,0.8584281,2.2917986e-05
0.9900709,0.0,0.000106960535,1.4901161e-07,0.0,0.00023284554,0.0005503893,7.033348e-06,1.7732382e-05,5.3942204e-05
0.21862626,0.0,0.00045624375,2.4437904e-06,2.0861626e-06,0.0008761585,0.0014362633,0.00050771236,0.9077125,0.0068383217
0.00041610003,2.0563602e-06,3.874302e-07,8.34465e-07,6.854534e-07,0.00071170926,0.9658011,6.2584877e-07,0.03077665,0.016379893
0.0,6.2584877e-07,1.3798475e-05,0.99999917,0.00020250678,0.00048193336,0.006513864,4.7683716e-07,0.0008787513,1.3113022e-06
0.9961464,0.0,8.6426735e-07,8.940697e-08,0.0,0.0006406903,0.00016474724,1.3709068e-06,0.00010663271,8.666515e-05
0.9994353,0.0,0.0,0.0,0.0,0.0001322329,0.00023168325,2.9802322e-07,4.5388937e-05,1.770258e-05
4.827976e-06,8.460879e-05,0.00068733096,0.0002850592,0.00022134185,0.9996389,0.012018561,7.927418e-06,0.0037337542,0.0012366772
9.4771385e-06,0.0,1.719594e-05,7.748604e-07,0.0,5.4061413e-05,0.0032953024,0.00072577596,0.9986134,0.0007674992
4.4703484e-07,1.1920929e-07,9.23872e-07,4.902482e-05,0.0,0.00010174513,0.61001915,4.7683716e-06,0.9998827,9.000301e-06
0.0001347959,0.0,3.874302e-07,1.3202429e-05,2.3841858e-07,0.00012376904,0.0004351735,2.1457672e-06,0.9996627,5.4001808e-05
1.0877848e-05,3.695488e-06,0.9931641,9.4771385e-06,0.0003810823,0.0029886067,0.08006257,9.697676e-05,0.4667837,0.0001642406
0.9966738,0.0,1.1920929e-07,0.0,0.0,0.0001205802,0.00023755431,2.6226044e-06,0.00011467934,0.00036495924
9.211898e-05,0.0,0.0,0.0,0.0,0.0,1.9669533e-06,0.0,6.389618e-05,0.9999981
0.0062771738,0.0,0.00076797605,4.2706728e-05,0.9975561,4.3809414e-05,0.0008840263,8.910894e-06,9.486079e-05,0.00014963746
0.9791728,5.9604645e-07,1.04904175e-05,3.2782555e-07,2.9802322e-08,0.0015875995,0.001040101,3.5762787e-06,0.0016514659,0.01195994
0.25558057,1.1503696e-05,5.8799982e-05,9.864569e-06,5.2303076e-05,0.0021590292,0.008289218,7.802248e-05,0.01638776,0.393898
0.99709487,0.0,1.1920929e-07,2.9802322e-08,0.0,0.0002988577,0.000331223,2.682209e-07,0.0011583567,3.5732985e-05
1.013279e-06,2.9802322e-08,3.3974648e-05,8.940697e-08,0.0,4.172325e-07,0.00021284819,2.0861626e-07,3.3676624e-06,0.99999213
0.0027544498,0.0,7.605553e-05,1.335144e-05,3.5762787e-07,0.00012078881,0.0019131899,0.0019446313,0.98222697,0.0006388724
0.1917089,0.0,2.5600195e-05,0.006559938,1.218915e-05,0.0044582784,0.001786381,7.265806e-05,0.65501225,0.038695425
0.9981315,0.0,0.0,0.0,0.0,0.00012421608,0.0002898872,1.7881393e-07,9.9390745e-05,2.4288893e-05
9.000301e-06,1.013279e-06,3.2782555e-07,1.0728836e-06,1.1622906e-06,0.00528571,0.99946404,3.2484531e-06,0.00032916665,0.00057962537
1.1622906e-06,3.2186508e-06,0.00077685714,2.3692846e-05,8.535385e-05,0.9999999,0.0031123161,1.4007092e-06,0.062048495,1.3232231e-05
1.0460615e-05,8.940697e-08,1.3947487e-05,0.99997616,2.7120113e-06,0.00036096573,0.003432393,2.413988e-06,0.00056120753,2.014637e-05
0.9937367,0.0,7.4207783e-06,6.2584877e-07,1.1622906e-06,0.0019310117,0.00232023,1.4543533e-05,4.5359135e-05,0.00033512712
1.2487173e-05,8.940697e-08,6.2584877e-07,0.9999936,4.7683716e-07,0.00047442317,0.0005082786,8.940697e-08,0.0003723204,1.0430813e-06
6.854534e-07,0.9723218,0.001766324,0.99939764,0.0009396076,0.0051970184,0.00064074993,1.7881393e-07,0.2670638,3.8206577e-05
0.99228275,0.0,1.1920929e-06,5.9604645e-08,8.940697e-08,9.536743e-05,0.00021064281,0.00015431643,6.005168e-05,0.0021980107
2.348423e-05,8.046627e-06,0.0030455887,0.003229797,0.7112937,0.9999608,0.01500845,0.0003067851,0.0035354495,6.136298e-05
5.453825e-06,0.0,3.5762787e-07,0.99999815,0.0,0.00020763278,0.00066435337,0.0,2.9444695e-05,8.940697e-08
3.540516e-05,0.0,1.7881393e-07,3.9041042e-06,0.0,6.1154366e-05,0.00042435527,3.0398369e-06,0.9998057,6.824732e-06
0.0055004656,0.0,6.824732e-06,0.97668636,1.3411045e-06,0.00091713667,0.00047561526,0.00032794476,0.014771014,2.5719404e-05
8.85129e-06,6.3180923e-06,0.00015646219,0.0015990734,0.00017163157,4.2378902e-05,0.0015284121,0.0,0.0074979067,0.6144062
3.8444996e-06,0.0,0.0,0.9999759,0.0,6.881356e-05,0.00077819824,4.0233135e-06,4.851818e-05,8.34465e-07
0.00042057037,0.00010469556,3.5762787e-06,2.3961067e-05,3.3974648e-06,0.007048458,0.83537984,0.00010049343,0.4025398,0.008762121
0.9904933,0.0,2.0861626e-06,8.940697e-07,8.940697e-08,0.00088754296,0.0010172725,5.5134296e-06,0.0005209744,0.0009256005
0.99905103,0.0,2.9802322e-07,2.9802322e-08,0.0,0.00014299154,0.00021880865,4.3213367e-06,2.7567148e-05,4.7922134e-05
0.19053623,2.9802322e-08,0.00011789799,4.518032e-05,4.172325e-07,0.00021779537,0.0016435683,0.4957286,0.020198166,0.001897335
0.004052043,5.4240227e-06,2.887845e-05,0.00020256639,5.9604645e-08,0.0016951859,0.94677913,0.17164773,5.3316355e-05,0.0003065169
1.4901161e-07,0.0,1.7881393e-06,0.9999012,1.6510487e-05,0.00017240644,0.0015810728,8.34465e-07,0.99203956,8.940697e-08
1.7523766e-05,0.004383743,0.01378414,3.0130148e-05,5.8948994e-05,0.99457157,0.04149583,2.682209e-06,0.10767293,0.001942426
0.05565369,5.9604645e-08,7.033348e-06,2.2530556e-05,2.8014183e-06,0.0013178885,0.0050857663,7.480383e-06,0.9227871,0.002227515
2.5331974e-06,0.0017496347,0.43273622,0.0030409992,5.9247017e-05,0.00042930245,0.46591038,2.115965e-06,0.993207,7.0631504e-05
0.3531704,0.0,1.013279e-06,0.0,2.9802322e-08,9.000301e-06,5.581975e-05,0.8108977,0.00032779574,1.6838312e-05
0.0036427677,2.9206276e-06,0.00012907386,1.7911196e-05,4.4703484e-07,5.5521727e-05,0.0018079579,2.6524067e-06,0.9959536,0.00014406443
0.97473073,0.0,0.00011643767,2.0563602e-06,5.9604645e-08,0.00016435981,0.00064849854,0.007560134,0.00011974573,0.0028205514
0.9791373,0.0,5.662441e-07,4.7683716e-07,0.0,0.0010205209,0.0006943643,7.987022e-06,0.027266532,0.0007995069
0.0030210912,4.7683716e-07,0.9974337,4.914403e-05,1.0430813e-06,0.00035697222,0.0060290694,1.4513731e-05,0.01299274,2.5182962e-05
0.9929936,0.0,4.6491623e-06,2.9802322e-08,0.0,0.00015977025,0.0005067289,0.00013807416,0.0004415214,0.00092336535
7.7188015e-06,8.940697e-08,9.536743e-07,7.9244375e-05,1.1920929e-07,5.7071447e-05,0.0012419224,5.066395e-07,0.99799776,0.0010500252
0.4708126,0.0,2.9742718e-05,7.838011e-06,1.0728836e-06,0.0017742515,0.00079879165,1.54078e-05,0.48162192,0.010612071
0.9641285,1.4901161e-07,6.842613e-05,7.897615e-06,9.468198e-05,0.0010299981,0.0014336407,2.1368265e-05,0.0010025799,0.00680539
0.0035360456,0.0,3.1292439e-06,4.0233135e-06,7.778406e-06,0.00036111474,0.0039011836,5.9604645e-08,0.95066017,0.011144221
0.02783513,0.0,5.364418e-07,1.0371208e-05,4.172325e-07,0.00041148067,0.00094124675,3.1888485e-06,0.97995245,0.0039277673
3.516674e-06,7.748604e-07,0.99945337,0.0018322468,7.355213e-05,0.0003106296,0.015569717,6.431341e-05,0.0020765662,0.0019188821
2.3245811e-05,0.0,1.7881393e-07,1.7881393e-07,2.4199486e-05,0.00016480684,0.0008864999,1.4901161e-06,0.9992033,3.4570694e-06
1.013279e-05,0.00010159612,0.0011406541,5.352497e-05,0.2746548,0.0011137426,0.06880489,0.00033456087,0.0063880086,0.5050542
0.62184495,2.9802322e-08,1.1920929e-07,1.6093254e-06,8.940697e-08,0.00042030215,0.0002721548,1.1920929e-07,0.78754544,0.00029975176
9.268522e-05,0.0,7.1525574e-07,6.854534e-07,8.940697e-08,1.7255545e-05,0.0011564195,2.9802322e-07,0.9999109,1.9073486e-06
0.99554557,0.0,1.66893e-06,2.9802322e-08,2.9802322e-08,0.0005801916,0.0004995167,1.758337e-06,0.00039702654,0.0010425746
0.0018849671,0.0,1.1622906e-06,2.5063753e-05,1.1324883e-06,0.00014510751,0.0015542507,8.314848e-06,0.99746144,0.00026470423
2.0861626e-07,7.2717667e-06,0.021809489,1.0162592e-05,1.3828278e-05,0.9999788,0.0023922026,8.285046e-06,0.971769,2.5629997e-06
0.26130772,1.7881393e-07,2.6583672e-05,1.1473894e-05,8.940697e-08,0.0040409565,0.00244084,0.00049838424,0.7598681,0.010547996
0.95361406,0.0,2.3841858e-07,1.2516975e-06,0.0,0.0003888607,0.0001642108,3.6537647e-05,0.07848841,0.0011407733
0.98313016,0.0,5.364418e-07,7.390976e-06,5.066395e-07,0.0012920201,0.0004875064,5.3048134e-06,0.0010099113,0.0022270083
0.0004197657,0.0,2.8908253e-06,2.2947788e-06,1.4901161e-07,5.978346e-05,0.000400424,5.751848e-06,0.9990096,0.00016948581
2.6524067e-05,2.9802322e-08,0.99996716,1.6868114e-05,2.3841858e-06,0.000111192465,0.0016507506,8.839369e-05,0.0008969605,1.66893e-06
0.98407495,0.0,1.1622906e-06,2.8312206e-06,2.9802322e-07,0.0006091893,0.00037631392,9.834766e-07,0.00036749244,6.809831e-05
0.94726825,0.0,0.00014933944,6.2584877e-07,9.23872e-07,0.0010258853,0.0010719597,3.8564205e-05,0.0010021627,0.00895533
0.9772349,0.0,3.5762787e-07,8.940697e-08,2.9802322e-08,3.3169985e-05,0.00016179681,0.007743031,3.1799078e-05,0.0003693998
0.0,4.1007996e-05,0.94068325,0.00016453862,0.00013530254,0.9974974,0.012792319,1.2040138e-05,0.98643696,1.6987324e-06
0.9825494,0.0,1.0579824e-05,1.1920929e-07,2.682209e-07,6.6280365e-05,0.00021392107,0.00024488568,0.00049471855,0.00010177493
9.447336e-06,0.9426148,5.8621168e-05,0.0012051165,8.046627e-07,0.0035770535,0.012500316,3.874302e-07,0.9818119,0.0013566613
5.930662e-06,0.9962727,0.0008793771,0.00019183755,0.00014141202,0.87828743,0.00016921759,2.3841858e-07,0.16758335,0.0007174909
0.079993516,0.0,2.3841858e-07,4.1127205e-06,0.0,0.0007059574,0.0009226203,1.758337e-06,0.939922,9.357929e-06
2.9802322e-08,2.9802322e-08,0.00013232231,0.99999964,0.3944775,0.0005108416,0.0017539263,5.9604645e-08,0.00017216802,0.0
0.98435444,0.0,1.1831522e-05,1.758337e-06,8.940697e-08,0.00039070845,0.0011247098,9.596348e-06,0.04260847,2.7924776e-05
0.0005622804,0.0,3.516674e-06,6.854534e-07,0.0,0.00013434887,0.0011428297,3.4570694e-06,0.99859834,0.0002129376
0.00027948618,5.465746e-05,1.6093254e-06,5.364418e-07,2.0861626e-07,0.00083884597,0.99701107,4.7385693e-06,0.0012265742,0.00039869547
3.33786e-06,1.1920929e-07,5.662441e-07,0.9999994,5.9604645e-08,0.00035241246,0.0007312894,5.9604645e-08,4.631281e-05,5.9604645e-08
2.6971102e-05,2.4437904e-06,8.940697e-08,2.9802322e-07,5.9604645e-08,0.0009673536,0.9983177,5.4836273e-06,7.665157e-05,0.0023985505
0.8423419,0.0,6.556511e-07,3.5762787e-07,7.748604e-07,0.00046107173,0.001342833,1.0609627e-05,0.19030038,0.001100868
0.9237014,0.0,0.002238363,3.874302e-07,2.9802322e-08,0.00018656254,0.0007676482,0.009219974,0.00011831522,0.00017037988
6.854534e-07,9.5278025e-05,0.005676478,0.00095042586,0.0003604889,0.99999833,0.008996636,8.550286e-05,0.0050898194,1.9013882e-05
2.7090311e-05,0.0,1.1622906e-06,2.9206276e-06,5.9604645e-08,2.348423e-05,0.001788646,2.9802322e-07,0.9999497,2.861023e-06
2.3543835e-06,0.00017052889,0.023980469,0.99026304,4.374981e-05,0.0006301701,0.0051273406,0.0,0.9819133,9.23872e-07
0.40586,0.0,1.7881393e-06,8.910894e-06,8.672476e-06,0.00032395124,0.0010308623,4.172325e-07,0.47413415,0.02750349
3.9339066e-06,0.0087246,3.0100346e-05,0.0006494224,2.4735928e-06,0.0017265677,0.6520752,0.0,0.9741701,0.0024227202
0.99392205,0.0,5.3346157e-06,2.0861626e-07,0.0,0.0010855198,0.0014260113,5.8799982e-05,7.3611736e-05,0.0004659891
0.9899621,0.0,1.4603138e-06,1.7881393e-07,0.0,0.00014016032,0.00021752715,0.0009312928,6.592274e-05,0.00071671605
7.611513e-05,2.9802322e-08,5.066395e-07,0.99997735,8.34465e-07,0.0006311238,0.0007689595,2.682209e-07,0.00025635958,6.2584877e-07
0.99891645,0.0,2.682209e-07,0.0,0.0,0.00069767237,0.0005160868,4.2915344e-06,1.7911196e-05,2.2113323e-05
0.03754881,4.10676e-05,0.00032553077,8.7320805e-06,3.1292439e-06,0.0016108155,0.0053760707,2.682209e-06,0.83542275,0.08476269
0.005026281,0.0,2.6524067e-06,3.3676624e-05,3.516674e-06,2.4914742e-05,0.0002040267,0.9807975,0.036993146,0.0041534603
2.938509e-05,0.0,1.1920929e-07,1.2814999e-05,0.0,1.66893e-05,0.0004621446,7.8856945e-05,0.9999341,3.1888485e-06
1.0639429e-05,0.0,1.7881393e-07,0.999993,1.013279e-06,0.00026592612,0.00044888258,8.940697e-08,0.000308007,0.0
1.4901161e-07,0.9671892,0.003113389,0.00014403462,0.8190839,0.0033788383,0.003660053,1.1026859e-06,0.007836431,0.00048100948
1.9669533e-05,7.4505806e-07,0.00015977025,2.0682812e-05,9.089708e-06,0.00012046099,0.00075912476,1.6152859e-05,0.0009063184,0.98811024
1.0877848e-05,0.0,2.9802322e-07,0.9999975,1.1026859e-06,0.0005841255,0.0006555617,1.1920929e-07,8.332729e-05,1.7881393e-07
7.95722e-06,2.9802322e-08,2.2053719e-06,0.9999968,2.3066998e-05,0.00043150783,0.0017282665,2.9802322e-08,0.007335335,0.0
0.0017552972,0.0,3.5762787e-07,2.3454428e-05,2.9802322e-07,0.00021189451,0.0009661019,2.6613474e-05,0.9983394,3.734231e-05
0.67862624,0.0,4.7683716e-07,9.23872e-07,5.9604645e-08,0.00046476722,0.0020427704,1.0281801e-05,0.23066443,0.0032628775
0.9979658,0.0,2.3841858e-07,0.0,0.0,3.7759542e-05,6.604195e-05,6.6399574e-05,4.5835972e-05,0.00013539195
1.21593475e-05,1.8805265e-05,0.00017544627,0.00042316318,0.00010961294,0.003533274,0.9529339,0.0055505633,0.00015571713,0.0082369745
0.038227618,0.0,1.5497208e-06,1.1742115e-05,6.914139e-06,0.0002949834,0.0009099245,2.3543835e-06,0.96054274,0.0003876388
0.9976866,0.0,5.9604645e-08,0.0,5.9604645e-08,9.9509954e-05,0.0001489222,2.9802322e-07,7.0631504e-05,0.0011855364
0.9913095,0.0,1.3709068e-06,5.9604645e-07,6.4074993e-06,0.00032812357,0.0009405315,2.592802e-06,0.0005129874,0.0012831688
0.00016021729,0.0,0.00023069978,4.827976e-06,2.9802322e-07,6.4611435e-05,0.0011133254,0.9922725,0.009715736,0.0021459162
0.97993284,0.0,0.00023883581,4.172325e-07,0.0,0.0024812818,0.0010965765,8.5145235e-05,0.0026796758,0.00034582615
0.53512716,0.0,1.1056662e-05,2.1755695e-06,0.0,1.8507242e-05,6.29127e-05,0.5655101,0.00016152859,0.00062686205
5.066395e-07,2.9802322e-08,0.99861884,4.2915344e-06,3.8444996e-06,2.0593405e-05,0.0019636452,3.6656857e-06,0.99706644,1.7881393e-07
2.5689602e-05,0.0,0.99974394,1.2069941e-05,7.134676e-05,0.00013518333,0.002253741,0.00020641088,0.34753,1.9073486e-06
0.9908284,0.0,0.0011699796,1.1026859e-06,4.172325e-07,0.0004861951,0.0006290674,5.143881e-05,4.762411e-05,0.00034818053
8.940697e-08,7.748604e-07,0.00019362569,0.0001361072,2.1070242e-05,1.0,0.00086811185,6.0498714e-06,0.0016942024,6.854534e-07
0.07732937,1.1920929e-07,0.00012302399,1.1920929e-07,0.0,3.695488e-06,0.0006315708,0.0109708905,3.3676624e-05,0.5399932
0.97858477,0.0,2.8401613e-05,3.0398369e-06,5.9604645e-08,0.0013299882,0.0009803474,0.00079125166,0.0005787909,0.011621147
0.00020948052,0.0007659197,0.9164636,0.00053828955,0.00038331747,0.0025605261,0.015296131,1.9967556e-06,0.071109116,0.009875447
6.7949295e-06,2.682209e-07,0.9951339,0.022441864,5.7786703e-05,0.00095164776,0.009370238,0.47368306,0.00031483173,1.6272068e-05
0.0,0.0090735555,3.4570694e-06,0.9999882,0.061624557,0.08068186,0.4859832,2.9802322e-08,0.027338058,6.943941e-06
6.2584877e-07,2.9802322e-07,0.0003209412,0.9999723,0.0044605434,0.0007574558,0.0013169348,5.9604645e-08,0.030851126,0.0006146729
0.0011820495,0.0012741983,2.9802322e-08,0.00010943413,0.0,1.7523766e-05,0.00022166967,0.0,0.011095256,0.9060725
1.2904406e-05,0.00067827106,0.6462083,0.9998919,3.9041042e-06,0.0005993545,0.003960848,1.6093254e-06,0.00037184358,2.9593706e-05
0.99653506,0.0,1.9073486e-06,4.440546e-06,0.0,0.00092083216,0.0018787384,6.0498714e-06,0.00021001697,0.0002644658
0.057995588,0.0,2.9206276e-06,1.2516975e-06,0.46726623,0.00042796135,0.0004428923,1.6391277e-06,0.5030026,5.0723553e-05
5.364418e-07,0.05787939,4.4375658e-05,9.024143e-05,6.854534e-07,0.0005324185,0.040766448,5.9604645e-08,0.9994763,4.3302774e-05
1.347065e-05,0.0,2.9802322e-08,3.2186508e-06,2.9802322e-08,5.9634447e-05,0.00050386786,1.847744e-06,0.9998396,4.9620867e-05
0.9783512,0.0,2.5451183e-05,5.185604e-06,0.0,0.0007234812,0.00091046095,0.0022852719,1.5944242e-05,0.0015904903
0.9912632,0.0,3.2782555e-07,2.9802322e-07,3.1590462e-06,0.00021269917,0.00038215518,2.682209e-07,0.00019940734,0.0010025799
0.0,0.008375466,1.0430813e-05,0.99993175,1.5199184e-05,0.00015643239,0.0009340346,2.9802322e-08,0.992819,0.0
0.9615695,0.0,2.0980835e-05,3.993511e-06,8.940697e-08,0.0015699863,0.0007338822,9.030104e-06,0.083550245,0.0024229884
7.644296e-05,6.2584877e-07,0.99985206,0.01726526,4.798174e-06,0.0003310144,0.002766937,3.400445e-05,0.0005451143,2.592802e-06
5.185604e-05,1.7881393e-07,0.9976984,0.0018008649,7.247925e-05,0.0007532239,0.0048573017,4.670024e-05,0.24779525,9.331107e-05
0.97137296,0.0,7.0631504e-06,1.1920929e-06,1.1920929e-07,0.00028946996,0.00046542287,5.543232e-06,0.010751724,0.0010634959
0.00038784742,0.0,1.5497208e-06,2.592802e-06,4.172325e-07,4.0620565e-05,0.00032120943,4.172325e-06,0.99849963,0.0005079508
0.4922678,0.0021240711,0.3719218,1.3142824e-05,1.1026859e-06,0.005020529,0.06810725,0.00039547682,0.001532942,0.0019309223
2.0116568e-05,0.99812746,0.0003669262,0.006177932,0.00035476685,0.016735822,0.0007392168,0.0,0.32180274,0.0011945963
0.98768026,2.9802322e-08,0.00015333295,1.5795231e-06,1.4901161e-07,0.0005083382,0.0011431873,1.7881393e-06,0.0007520318,0.00058496
0.9972348,5.9604645e-08,7.4505806e-07,2.3841858e-07,0.0,0.0018300116,0.003438443,3.2484531e-06,0.00029358268,0.00017917156
0.16269946,8.940697e-08,0.6228548,1.8537045e-05,2.7120113e-06,0.00033521652,0.0020903647,6.660819e-05,0.3577835,0.00014832616
1.4901161e-07,2.4735928e-06,8.940697e-07,0.9999927,5.662441e-07,0.0004656613,0.0020179152,1.1920929e-07,0.73948556,2.9802322e-08
0.11081576,0.0,2.3841858e-06,2.9802322e-07,2.9802322e-08,0.00033298135,0.00024658442,6.3717365e-05,0.93591493,0.0006329417
0.44837028,0.0,2.503395e-06,1.5497208e-06,2.3841858e-07,0.0006489754,0.005212724,1.385808e-05,0.6634906,0.00023269653
8.34465e-07,0.9975624,0.00037166476,0.006402701,3.993511e-06,0.006083399,0.0011578202,6.854534e-07,0.934603,0.0005028248
8.940697e-08,3.874302e-07,2.9206276e-06,0.9999995,2.1457672e-06,0.00020968914,0.0012729466,5.9604645e-08,0.0010435581,5.9604645e-08
0.99642074,0.0,3.2782555e-07,5.9604645e-08,0.0,0.00012680888,0.00030133128,6.210804e-05,2.3901463e-05,0.00026994944
0.9968143,0.0,4.4703484e-07,8.940697e-08,2.9802322e-08,0.0005148053,0.0012334287,6.1392784e-06,0.00014969707,0.00039735436
0.99529326,0.0,2.3841858e-06,1.1920929e-07,0.0,0.00028046966,0.0004556775,5.275011e-06,2.8848648e-05,5.683303e-05
0.003104329,1.0430813e-06,3.2395124e-05,4.1931868e-05,9.834766e-07,0.0009970069,0.017344087,4.1127205e-06,0.1491239,0.54007375
1.3113022e-06,0.99697894,6.6548586e-05,0.0026587546,5.662441e-07,0.0014333427,0.0004968047,0.0,0.99880445,2.3841858e-06
5.3942204e-06,2.3901463e-05,0.004675001,4.4584274e-05,0.0001321733,0.99999785,0.009498507,5.143881e-05,0.23846647,2.30968e-05
0.9967127,0.0,0.0,5.9604645e-08,0.0,0.00081834197,0.0005747974,2.9802322e-07,0.0010209978,6.41346e-05
7.4505806e-07,0.00017300248,0.90947855,9.4503164e-05,0.00916329,0.0018182695,0.25951612,0.0011716783,0.0012049079,0.0069368184
0.0036358833,3.874302e-07,0.0010832846,6.2584877e-07,1.0430813e-06,0.000115424395,0.0011818409,0.00018328428,0.0008609593,0.98723197
5.6922436e-06,0.0,0.0043242276,8.46386e-06,0.87151146,2.0802021e-05,0.0024927855,6.765127e-06,0.99970686,9.447336e-06
3.7044287e-05,4.3570995e-05,0.00017741323,3.9607286e-05,1.3768673e-05,0.9999965,0.0411205,1.1622906e-06,0.0068604946,2.0861626e-05
0.93412745,1.6987324e-06,7.5101852e-06,2.5331974e-06,9.775162e-06,0.00073847175,0.00020691752,7.748604e-07,0.071740866,0.0012112558
0.96613955,1.0728836e-06,1.5705824e-05,0.0,5.9604645e-08,0.00038725138,0.0009120405,8.374453e-06,0.000111848116,0.06676012
1.6182661e-05,0.99310815,0.00018918514,0.004683405,0.00035706162,0.0056011975,0.0024595857,0.0,0.04204023,0.008096963
0.9973533,0.0,2.3841858e-07,8.940697e-08,0.0,0.00087827444,0.0016943514,4.23193e-06,7.519126e-05,1.5825033e-05
0.0012405515,0.0,4.053116e-06,0.00020366907,1.758337e-06,0.00016906857,0.00044816732,0.00012552738,0.9988688,2.6613474e-05
2.7120113e-06,3.3080578e-06,2.5898218e-05,2.4735928e-06,5.066395e-07,0.0050408244,0.75463337,3.0696392e-06,0.68878853,0.016859293
0.99725044,0.0,1.7881393e-07,0.0,0.0,9.265542e-05,0.00012865663,1.4603138e-05,0.0001885593,4.8935413e-05
5.155802e-06,5.9604645e-08,0.00014361739,2.0563602e-06,6.854534e-07,0.9999975,0.002744913,1.1324883e-06,0.07535297,2.4020672e-05
0.25880244,2.0861626e-07,0.87392664,1.1920929e-07,0.0,7.554889e-05,0.0014893413,0.0013283789,1.2397766e-05,3.4570694e-05
0.00013285875,1.4901161e-07,4.440546e-06,0.99997514,3.5762787e-07,0.00055873394,0.00045010448,1.1920929e-07,0.0037215948,3.784895e-06
0.13379776,1.7881393e-07,0.001629442,1.9967556e-06,2.9802322e-07,0.00031480193,0.003984183,0.009923786,0.00094881654,0.89155126
0.30867195,0.0,5.9604645e-08,3.5762787e-07,2.9802322e-08,0.00010454655,0.00029483438,2.5331974e-06,0.876804,4.6491623e-05
0.045687616,3.4421682e-05,1.9818544e-05,3.0100346e-06,3.8444996e-06,0.00068858266,0.48791438,9.23872e-07,2.3156404e-05,0.0034911633
0.024460942,8.940697e-08,1.4901161e-07,2.3245811e-06,2.9802322e-08,0.00013041496,0.00027555227,1.7881393e-07,0.99465764,2.9206276e-05
4.36306e-05,0.9963045,0.00014585257,9.9658966e-05,0.00023692846,0.0023200512,0.0006734133,1.7881393e-07,0.026185453,0.008309692
0.9975588,0.0,8.940697e-08,1.4305115e-06,5.9604645e-08,0.000818938,0.00070631504,1.1026859e-06,0.0002374351,0.0004043281
0.17192,1.0728836e-06,4.6670437e-05,1.4364719e-05,2.0861626e-07,0.00047019124,0.0017813444,1.7881393e-07,0.6850956,0.02139321
0.9927404,0.0,1.3709068e-06,2.9802322e-08,2.9802322e-08,0.0013053715,0.0005440414,8.034706e-05,0.0007581413,0.0010823607
0.21560746,1.0728836e-06,0.96526206,1.8775463e-06,0.0,8.7320805e-05,0.001865536,0.005251229,3.72231e-05,0.00032052398
0.80466926,0.0,2.1606684e-05,5.4836273e-06,0.01119113,0.0004708171,0.0025525987,4.9352646e-05,0.00021150708,0.010878742
0.99121404,0.0,5.2154064e-06,8.940697e-08,0.0,0.0003376305,0.0005695224,0.00046676397,7.086992e-05,0.0003941059
0.025899142,1.3142824e-05,4.4703484e-06,2.7060509e-05,7.626414e-05,0.0024916232,0.8406372,2.3901463e-05,4.476309e-05,0.00459221
0.85018146,3.784895e-06,0.20743376,8.34465e-07,2.3841858e-07,0.0001746118,0.00068449974,0.0030262768,0.0002848804,0.007868499
0.5594093,0.0,2.9802322e-07,0.0,0.0,2.2649765e-06,4.3839216e-05,0.59132016,1.7255545e-05,6.4343214e-05
8.940697e-08,1.1920929e-07,4.425645e-05,0.00011372566,2.05338e-05,0.9999998,0.0017606914,0.000106573105,0.93856156,6.2584877e-07
1.7881393e-07,8.940697e-08,1.4513731e-05,0.9999993,7.677078e-05,0.0003707111,0.0004595816,1.1920929e-07,4.4852495e-05,2.9802322e-08
0.0058044195,0.0,6.2584877e-07,2.9802322e-07,1.7881393e-07,2.6464462e-05,0.00019401312,8.34465e-07,0.990666,0.00014004111
0.9970747,0.0,2.8908253e-06,2.0861626e-07,0.0,0.0022795498,0.001524806,1.2516975e-06,0.0006361306,0.00060352683
4.452467e-05,5.9604645e-08,0.99710476,0.00010037422,0.03311777,0.00010931492,0.0018599927,2.3841858e-06,0.0001783967,4.082918e-06
0.0,0.00012174249,0.9880134,0.99926627,0.0005366504,0.003604889,0.13588217,6.2584877e-07,5.9336424e-05,5.9604645e-08
0.9809401,2.9802322e-08,2.7120113e-06,1.1920929e-07,6.556511e-07,0.00027778745,0.00057145953,6.28829e-06,0.0014982224,0.005502671
4.0382147e-05,0.0,7.790327e-05,9.447336e-06,0.0,5.581975e-05,0.0022204816,0.00023412704,0.99964243,4.646182e-05
1.6719103e-05,1.937151e-06,3.2782555e-07,1.3113022e-06,4.4703484e-07,0.0047519803,0.9986551,1.7881393e-07,7.644296e-05,0.00015687943
6.0141087e-05,3.784895e-06,0.9963725,0.00020214915,0.0017156899,0.00072076917,0.007994324,9.715557e-06,0.11133841,0.00016775727
0.00292176,0.0,2.1755695e-06,1.2516975e-06,1.1920929e-07,7.7575445e-05,0.00054880977,1.2785196e-05,0.99843603,6.7949295e-06
4.172325e-07,0.96870106,0.0014408529,0.0006389916,3.3974648e-05,0.9958086,0.0039055347,2.2947788e-06,0.26874208,2.4318695e-05
0.0,0.0,1.3321638e-05,0.99999976,4.297495e-05,0.00024032593,0.008581102,2.9802322e-08,0.0010991693,1.4603138e-06
0.0,0.9976077,0.00038209558,0.9998808,4.208088e-05,0.025851607,0.003457576,0.0,0.014485955,1.40964985e-05
0.4084111,0.0,4.6491623e-06,3.5762787e-07,0.0,0.00031787157,0.00040313601,0.00643453,0.62305236,0.00036156178
1.8566847e-05,0.000834316,0.0005108714,0.00015112758,1.9103289e-05,0.999999,0.00090292096,0.00011023879,0.013235182,7.212162e-06
0.9735934,0.0,2.115965e-06,2.3841858e-07,7.748604e-07,0.00021964312,0.00033473969,0.00018173456,0.002510935,0.0009993911
2.3841858e-07,3.400445e-05,0.95767725,0.00076043606,0.0010866523,0.9996755,0.007841766,4.87864e-05,0.10708243,2.464652e-05
0.024002314,0.0,2.0861626e-06,3.2156706e-05,0.0,0.0013660789,0.0008594394,0.001982808,0.974089,0.00025954843
0.0,3.8444996e-06,7.5399876e-06,0.99999976,0.3263389,0.0005312562,0.0018874705,6.2584877e-07,1.4871359e-05,1.1920929e-07
8.4251165e-05,0.0,1.4901161e-07,2.6524067e-06,0.0,1.8388033e-05,0.00034415722,8.6426735e-07,0.9999112,7.4505806e-06
0.93805826,0.0,2.4408102e-05,9.357929e-06,5.3048134e-06,0.00055608153,0.0004222095,0.0017108321,0.0024658442,0.028525084
2.9802322e-07,1.1920929e-07,1.013279e-06,0.99999857,0.0047619045,0.0007664561,0.00046777725,5.9604645e-08,0.031986475,0.0
0.974264,0.0,1.4454126e-05,1.1593103e-05,5.066395e-07,0.0023313165,0.0012441278,1.0967255e-05,0.01514402,0.003577739
6.735325e-06,0.0,8.940697e-08,0.0,0.0,0.0,1.8775463e-06,0.0,3.0696392e-06,0.9999923
0.0,0.00010514259,6.765127e-06,0.99999297,3.695488e-06,0.002685219,0.93384564,1.7881393e-07,0.00014644861,2.682209e-07
0.0,1.886487e-05,0.0004492104,0.00023794174,0.053871512,0.99999815,0.005010873,0.00042688847,0.00064870715,1.6719103e-05
0.99233246,0.0,6.467104e-06,8.34465e-07,7.748604e-07,0.008861393,0.001115799,1.3023615e-05,4.0590763e-05,8.21352e-05
3.0010939e-05,0.0,1.7881393e-07,0.0,0.0,0.0,8.34465e-07,7.95722e-06,2.682209e-06,0.9999956
0.0024544,0.0,3.2782555e-07,8.5532665e-06,1.7285347e-06,0.00030964613,0.0022153258,1.4811754e-05,0.996535,0.00017777085
0.00035485625,0.0,4.172325e-07,6.8604946e-05,1.7881393e-07,0.00012236834,0.0011858046,2.9802322e-07,0.99965477,1.49309635e-05
0.041667104,0.0,2.682209e-07,5.9604645e-08,8.940697e-08,8.350611e-05,0.00030496716,2.413988e-06,0.95438623,0.0008267462
0.010785013,0.0001181066,2.4408102e-05,9.089708e-06,5.5134296e-06,0.0076025724,0.5300122,3.6150217e-05,0.001132518,0.0025427938
0.06473699,0.0,0.000169307,2.3245811e-06,4.7683716e-07,0.0003193617,0.0038954914,0.7653493,0.006037742,0.0019057095
0.026284903,0.00013774633,0.64524126,1.4901161e-07,2.3841858e-07,0.00014206767,0.000536114,0.01725614,0.0002733171,0.039835036
0.0021994114,0.0,8.940697e-08,7.748604e-07,0.0,0.00017771125,0.00048938394,9.536743e-07,0.9972242,5.7041645e-05
2.1725893e-05,0.9966947,0.0021871626,0.0006708801,5.64456e-05,0.005260527,0.005461693,4.4703484e-06,0.0018326938,0.0029891431
3.2782555e-07,0.0027408302,0.003447771,0.99989283,0.019019127,0.0034014583,0.01700303,2.9802322e-08,0.048721164,1.5974045e-05
0.0039615333,0.0005058646,0.001267761,5.5998564e-05,5.0783157e-05,0.00026240945,0.00057956576,0.0,0.0213615,0.9296199
0.6129018,0.0,6.2286854e-06,2.9802322e-08,0.0,3.516674e-06,0.00019291043,0.5182205,3.1083822e-05,2.4616718e-05
7.748604e-07,6.854534e-07,0.00010615587,0.9999968,0.0031752884,0.0003234446,0.0017384887,2.682209e-07,0.07714611,3.5762787e-07
0.9683843,5.9604645e-08,2.2858381e-05,1.4901161e-07,8.940697e-08,0.000174433,0.00041937828,2.9951334e-05,0.014976233,0.0015072227
0.9967356,0.0,2.1457672e-06,5.364418e-07,0.0,0.00019669533,0.0002770424,9.23872e-07,0.00033468008,4.312396e-05
0.996637,0.0,2.3841858e-06,2.0861626e-07,5.9604645e-08,0.0007812679,0.0006890297,1.8626451e-05,0.0003504157,0.0008710623
0.9612409,0.0,5.9604645e-07,2.9802322e-08,0.0,0.00047317147,0.00021883845,3.1292439e-06,0.035310805,0.0032371879
3.2484531e-06,9.5665455e-06,0.038259327,0.00020185113,0.7169011,0.2714929,0.0052072704,1.3411045e-06,0.99591297,3.33786e-06
7.95722e-05,2.3841858e-07,0.0003708303,1.3798475e-05,7.748604e-07,0.99999964,0.0021977425,0.00018808246,0.0033105612,1.758337e-06
0.9914204,0.0,4.172325e-07,1.12354755e-05,3.874302e-07,0.0014788508,0.0012445152,2.1457672e-06,0.0012816787,0.0017212927
0.5371722,0.0,7.6293945e-06,1.1175871e-05,6.2286854e-05,0.00010189414,0.00032258034,0.00010102987,0.00042405725,0.6999738
0.99696195,0.0,1.4901161e-07,8.940697e-08,0.0,0.00026008487,0.0005578995,7.6532364e-05,3.3706427e-05,0.00042110682
9.211898e-05,0.0,0.0,0.0,0.0,0.0,1.9669533e-06,0.0,6.389618e-05,0.9999981
0.00047799945,0.00012984872,0.053590715,0.00012987852,9.536743e-07,0.0004645288,0.038882434,6.502867e-05,0.99757,6.9737434e-05
0.0024276674,1.7285347e-06,0.9756206,6.943941e-06,2.5629997e-06,0.0004235208,0.0005007386,2.2947788e-06,0.0011306107,0.0009407997
0.046628952,0.000101685524,0.00011742115,5.453825e-06,9.536743e-06,0.0033572614,0.45867905,0.00012564659,0.68319327,0.0045058727
0.0020446777,5.9604645e-08,4.5478344e-05,0.00010564923,0.8837613,0.047519118,0.0005644262,4.5001507e-06,0.0025782287,6.198883e-05
0.607985,2.9802322e-08,6.1690807e-06,1.5974045e-05,5.9604645e-08,0.00024989247,0.0004874766,0.000762105,0.022420973,0.06000009
0.0016722083,0.0,2.9802322e-07,0.9998188,1.2516975e-06,0.0007067919,0.0007638633,1.1920929e-07,0.000684917,4.172325e-07
8.940697e-08,0.0,0.0032240152,4.965067e-05,0.018971175,1.552701e-05,0.020210177,0.00019150972,0.99981886,5.751848e-06
0.9981327,0.0,0.0,0.0,0.0,0.0004453063,0.00020736456,1.1920929e-07,0.000354141,7.161498e-05
0.52172565,8.940697e-08,0.00014135242,1.4603138e-05,9.536743e-07,0.00054842234,0.0013742447,0.046058595,0.072966754,0.023880392
0.98613405,0.0,3.874302e-07,4.172325e-07,8.940697e-08,0.0009430945,0.0011399686,5.364418e-07,0.007995814,0.00030484796
9.801984e-05,0.0,2.0861626e-07,3.2782555e-07,5.066395e-07,1.5497208e-06,0.00020673871,1.1920929e-07,0.9999038,1.1920929e-07
4.172325e-07,0.9991057,4.2915344e-06,0.0003977716,1.758337e-06,0.00034809113,0.0002065301,0.0,0.99814737,1.4007092e-06
0.9983802,0.0,1.4305115e-06,8.940697e-08,0.0,0.0001333952,0.00026771426,5.364418e-07,3.7670135e-05,9.295344e-05
0.38283226,5.364418e-07,0.76740193,1.4871359e-05,2.3841858e-06,0.0010011494,0.0017409921,0.00040084124,0.009423554,0.00051125884
3.0696392e-06,4.053116e-05,0.00041154027,0.9997512,0.001080513,0.005700767,0.029660463,4.6491623e-06,0.90033865,2.9802322e-07
0.9790549,0.0,1.9967556e-06,1.7881393e-07,0.0,9.5665455e-05,0.00026988983,0.0054016113,8.711219e-05,0.00036424398
1.731515e-05,8.940697e-08,0.99983984,0.00043225288,0.0009953678,0.00011956692,0.0026238859,2.8759241e-05,0.020628363,4.044175e-05
0.00020602345,4.0590763e-05,4.273653e-05,1.3530254e-05,6.8843365e-06,0.0019353926,0.99467754,2.9295683e-05,0.14584935,0.0028215945
5.3048134e-06,0.000111192465,0.0012045205,1.3649464e-05,1.6152859e-05,0.00037112832,0.013858646,1.1384487e-05,0.039588034,0.9319838
0.99218047,0.0,1.1920929e-07,1.1920929e-07,5.9604645e-08,0.000852108,0.0021208823,5.6624413e-06,0.00021320581,0.00022184849
0.022986323,2.9802322e-07,0.0003569126,8.940697e-07,1.7881393e-07,0.98106444,0.005419582,2.413988e-06,0.00063836575,6.0796738e-06
5.9604645e-08,0.97831154,5.5998564e-05,0.99935734,3.5762787e-07,0.011198431,0.0020196736,0.0,0.9880198,2.5629997e-06
1.2516975e-05,0.00022268295,0.0005361438,4.4375658e-05,2.4616718e-05,0.9998547,0.094714135,2.4974346e-05,0.025901377,0.00038337708
1.937151e-06,2.9802322e-08,0.94264376,7.5012445e-05,1.475215e-05,7.867813e-06,0.0002323091,0.9659202,0.00029599667,8.2075596e-05
0.00017148256,2.9802322e-08,4.0590763e-05,1.013279e-06,1.7881393e-07,6.967783e-05,0.0009609163,0.00077328086,0.97088635,0.010057777
1.707673e-05,0.99797034,0.00011610985,0.00038668513,4.181266e-05,0.009379059,0.0005233884,5.9604645e-08,0.053802997,0.0024160147
0.0,1.1265278e-05,0.989764,0.99982023,0.0020303726,0.00015968084,0.0041490495,5.9604645e-08,0.98773074,0.0
4.3213367e-06,0.0,2.2172928e-05,1.5497208e-06,5.9604645e-08,2.3573637e-05,0.0019358993,8.3595514e-05,0.999682,0.00020328164
0.0,7.340312e-05,0.001129806,0.999988,0.9778772,0.9772454,0.005645424,3.3676624e-06,0.00012561679,0.0
0.9674729,2.9802322e-08,4.273653e-05,2.9802322e-08,3.963709e-06,0.0001733005,0.0003144145,3.6120415e-05,0.0005630255,0.008028835
0.99006104,0.0,1.937151e-06,2.7120113e-06,1.1920929e-07,0.0008817017,0.00084251165,1.8447638e-05,0.00014787912,0.00115484
9.536743e-06,3.501773e-05,0.29341823,9.417534e-06,1.5884638e-05,0.9998935,0.004577756,0.0021414757,0.0004953742,0.0003412366
0.0029702187,0.0,8.255243e-05,2.4735928e-06,0.0,6.5267086e-06,0.00036638975,0.9990809,3.221631e-05,6.0260296e-05
0.0,1.4901161e-07,0.0004786849,4.1127205e-06,0.0001423657,1.0,0.00029355288,3.117323e-05,0.0031375587,1.1920929e-07
0.009079933,2.9802322e-08,0.00020334125,2.1576881e-05,2.0861626e-07,0.9960636,0.001200676,8.997321e-05,0.0143857,9.846687e-05
5.9604645e-08,2.321601e-05,0.0013608336,5.850196e-05,2.7090311e-05,1.0,0.0038908124,1.001358e-05,0.013130307,7.95722e-06
0.00017362833,2.3841858e-07,0.00070247054,4.23193e-06,6.1690807e-06,0.00011199713,0.0020569265,0.000100553036,0.039574176,0.97595483
1.3113022e-06,8.940697e-08,0.999897,9.813905e-05,0.00010338426,0.0001962781,0.0014603436,0.0023442507,0.0003580749,0.00019147992
4.798174e-06,0.0,1.6987324e-06,0.99998784,1.1920929e-07,0.00019326806,0.0011209548,1.3709068e-06,3.156066e-05,5.066395e-07
0.3415015,0.0,9.903312e-05,0.00018537045,0.00027394295,0.008010477,0.0015750229,4.3809414e-06,0.08833048,0.04164356
0.99910617,0.0,2.9802322e-08,0.0,0.0,0.00013935566,8.660555e-05,2.2947788e-06,1.7344952e-05,0.000118762255
0.007614583,1.4901161e-07,3.322959e-05,1.9073486e-06,6.8843365e-06,0.99961066,0.014905721,6.7561865e-05,0.026061267,0.00013235211
0.0022945702,4.3213367e-06,0.00018972158,5.841255e-06,3.5762787e-07,0.004024446,0.48249793,5.2571297e-05,0.09070319,0.0011848807
5.5730343e-06,0.22082484,0.0056656003,2.1755695e-06,0.000104516745,0.0100797415,0.00013822317,5.3614378e-05,0.06391093,0.0023433566
0.039090157,0.0,8.583069e-06,8.940697e-08,0.0,0.9598124,0.0031764507,7.760525e-05,0.0011083782,0.00015690923
0.91627187,0.0,4.1127205e-06,4.7385693e-06,6.9737434e-06,0.00020572543,0.00063315034,0.00013813376,0.013133973,0.026211977
0.045850992,1.013279e-06,0.000114142895,2.682209e-07,4.7683716e-07,3.361702e-05,0.0012327731,0.00051760674,0.0011843741,0.9139519
0.00052559376,2.2351742e-06,0.0001167655,4.9233437e-05,1.9818544e-05,0.98457974,0.004188627,6.815791e-05,0.20007232,0.002222389
0.14502954,2.9802322e-07,0.01211223,4.8309565e-05,0.00031489134,0.00063309073,0.016191274,0.08110297,0.0047686696,0.01696217
0.0051726997,2.3841858e-07,5.3942204e-06,1.7285347e-06,3.874302e-07,0.9640863,0.0038631558,1.6123056e-05,0.053986847,0.008299589
0.98134863,0.0,4.23193e-06,0.0,0.0,9.030104e-06,7.5906515e-05,0.0062909126,7.3611736e-06,4.029274e-05
0.48709264,8.940697e-08,5.9604645e-08,2.7120113e-06,0.0,0.00022596121,0.00030860305,3.7014484e-05,0.6057894,0.00075903535
3.376603e-05,8.186698e-05,0.9630765,1.001358e-05,4.1246414e-05,0.9994066,0.006839335,0.00036793947,0.0017715394,1.4126301e-05
0.97563475,0.0,4.4196844e-05,8.940697e-07,3.0398369e-06,0.0015575886,0.0014882684,1.12354755e-05,0.0059170425,0.0031078458
1.4901161e-07,0.014155507,7.364154e-05,0.99995065,0.011764646,0.03252572,0.44139278,3.5762787e-07,0.0007882118,3.1381845e-05
0.99645734,0.0,4.172325e-07,1.1920929e-07,2.9802322e-08,0.0007658005,0.00018596649,5.90086e-06,0.00010627508,0.0015389621
8.314848e-06,2.0563602e-06,4.4554472e-05,0.9999753,3.6537647e-05,0.00069606304,0.003600657,1.1920929e-07,0.0020556748,2.6226044e-05
0.992062,0.0,8.940697e-08,8.940697e-08,0.0,7.3075294e-05,0.000121831894,2.9802322e-07,0.0042939484,0.00022345781
4.8309565e-05,2.6226044e-06,2.6226044e-06,4.261732e-06,6.2584877e-07,0.00024569035,0.0064329207,1.2695789e-05,0.9900701,0.004488945
7.987022e-06,0.0002386868,0.0011863708,7.033348e-06,7.4505806e-07,0.99999833,0.009614348,2.503395e-06,0.0043225884,3.1381845e-05
0.0,1.1026859e-06,1.5765429e-05,0.9999994,0.002929896,0.00043180585,0.0050564706,1.6391277e-06,0.00036984682,8.6426735e-07
0.99604976,0.0,4.172325e-07,1.2516975e-06,0.0,0.001298815,0.0018722713,7.1525574e-07,0.0011872053,7.712841e-05
1.3142824e-05,0.0,5.9604645e-08,3.5762787e-06,8.940697e-08,4.9442053e-05,0.0003078878,1.4901161e-06,0.99995923,2.115965e-06
0.0609082,4.7683716e-07,0.9794402,2.3543835e-06,5.9604645e-07,0.0003453493,0.0052719414,0.00030517578,0.00058174133,6.145239e-05
7.861853e-05,0.99825764,8.0019236e-05,0.00010165572,1.5884638e-05,0.0067325234,0.0001373887,5.9604645e-08,0.0026657581,0.00086236
0.99512607,0.0,2.3841858e-07,1.7881393e-07,8.940697e-08,0.00050890446,0.0005456209,5.453825e-06,0.0008327365,0.0001680553
0.0035688877,0.0,5.066395e-06,5.9604645e-08,0.0,0.00013059378,0.0010504127,9.000301e-06,0.9991635,1.0818243e-05
0.6901816,0.0,5.4836273e-06,1.4901161e-07,3.838539e-05,0.0001450181,0.00020548701,1.4483929e-05,0.092647046,0.0020817816
2.9802322e-08,0.000541389,0.9806322,0.18712693,0.00030565262,0.0066556633,0.5625932,1.8000603e-05,0.97897965,8.493662e-06
0.016280472,0.0,7.4505806e-07,1.0728836e-06,0.0,5.8799982e-05,0.00020763278,3.6865473e-05,0.988142,1.0460615e-05
0.9902556,0.0,1.1622906e-06,2.682209e-07,6.109476e-06,0.0006777048,0.00090920925,7.688999e-06,0.00012794137,0.0019250512
0.8103241,0.0,3.2782555e-07,0.0,0.0,8.6426735e-07,2.9832125e-05,0.17759624,0.00010827184,7.724762e-05
0.0907754,5.9604645e-08,7.4505806e-07,1.4901161e-07,0.0,0.001162827,0.3418967,1.6391277e-06,0.00011739135,1.3828278e-05
0.8577814,5.662441e-07,8.6426735e-07,1.5795231e-06,0.0,0.0015656948,0.0017438531,2.592802e-06,0.2982011,0.000991106
0.92621607,1.1920929e-07,3.9339066e-06,2.6524067e-06,1.4901161e-07,0.00028780103,0.0004002452,3.2782555e-07,0.15264153,0.000916183
0.000446409,0.0,2.9802322e-08,0.0,0.0,1.2725592e-05,0.00015947223,1.0728836e-06,0.99866307,0.00013116002
0.27774137,5.662441e-07,7.882714e-05,2.1547079e-05,6.7055225e-06,0.0020703971,0.12670135,0.005368978,0.00080272555,0.03614381
2.115965e-06,2.9802322e-08,0.00077980757,8.46386e-06,1.4305115e-06,1.31726265e-05,0.003525585,6.467104e-06,0.99996006,1.809001e-05
0.0,0.0,2.592802e-05,0.9999908,0.99943805,5.596876e-05,0.0002078712,8.940697e-07,0.0005954802,0.0
0.63686943,0.0,3.027916e-05,2.9802322e-08,4.2021275e-06,0.0008023977,0.0003350973,7.5399876e-06,0.019981652,0.08098528
0.85106784,8.34465e-07,0.0008111,2.0861626e-07,1.6391277e-06,0.00068864226,0.00080654025,2.3663044e-05,0.028382927,0.015396476
0.5670749,2.9802322e-08,2.05338e-05,2.2351742e-06,0.0,0.0008369684,0.0013942122,7.516146e-05,0.26971227,0.005409986
1.3887882e-05,2.3841858e-06,5.364418e-07,3.3169985e-05,3.5613775e-05,0.0055859983,0.9972447,1.847744e-06,0.0037269592,0.004741341
0.00038599968,0.0,0.00021740794,7.0035458e-06,5.2154064e-06,4.914403e-05,0.0011447072,0.98187053,0.0030500293,0.0015679598
1.7881393e-07,6.4074993e-06,6.878376e-05,0.9999919,1.963973e-05,0.00081959367,0.0018247068,5.0365925e-06,0.00026658177,1.1652708e-05
1.7017126e-05,6.8843365e-06,1.4901161e-06,3.4332275e-05,1.9073486e-06,0.9080435,0.91721725,1.8775463e-06,0.002640903,0.009130865
3.0696392e-06,1.7881393e-07,0.0046393573,0.00015062094,0.6429728,0.0011875927,0.059871733,9.0807676e-05,0.98104525,0.00025370717
4.3064356e-05,5.9604645e-08,0.99986434,5.581975e-05,7.033348e-06,0.00024193525,0.0068935156,2.3335218e-05,0.08362883,1.7553568e-05
1.2040138e-05,0.0,1.5497208e-06,1.013279e-06,0.0,2.8014183e-05,0.0009652674,7.1525574e-07,0.9999604,3.1590462e-06
0.9977778,0.0,6.2584877e-07,1.4901161e-07,0.0,0.00029870868,0.00042429566,8.493662e-06,0.00019678473,4.169345e-05
0.9893832,0.0,8.6426735e-07,1.3411045e-06,1.4901161e-07,0.00040072203,0.0013515651,7.212162e-06,0.00021845102,0.002940327
7.978082e-05,0.0,1.7881393e-07,0.9999914,2.682209e-07,0.00017338991,0.0001256764,8.940697e-08,1.2487173e-05,1.1026859e-06
4.9710274e-05,0.0,1.3411045e-06,0.9999939,4.6789646e-06,0.0002208054,0.0007033944,8.940697e-08,1.347065e-05,5.9604645e-08
0.0028445423,0.0,4.4882298e-05,3.2484531e-06,1.8715858e-05,6.952882e-05,0.002274841,4.068017e-05,0.992831,3.4213066e-05
0.99493456,0.0,2.3841858e-07,1.5497208e-06,0.0,0.0004377663,0.00042563677,2.9802322e-07,0.00092959404,0.00041341782
0.9810537,8.940697e-08,5.00679e-05,2.682209e-07,1.4901161e-07,0.001363188,0.002086401,0.000115484,0.0022830367,0.0009739697
0.05836591,1.4901161e-07,2.9802322e-07,2.3841858e-07,8.34465e-07,0.0014287531,0.24203819,2.0861626e-07,0.00082439184,3.7819147e-05
0.00021725893,6.2555075e-05,0.00038552284,0.00032684207,0.0001155138,0.0040192604,0.96625483,0.000112593174,0.00046944618,0.0015797019
0.90551996,1.6093254e-06,3.835559e-05,0.00011393428,5.364418e-07,0.0301058,0.0024304986,1.7523766e-05,0.07893494,0.0017549098
0.022340119,0.0,1.1324883e-06,9.23872e-07,2.9802322e-08,0.00065100193,0.8965442,1.4901161e-07,0.0006033182,7.522106e-05
1.8954277e-05,2.9802322e-08,0.00012373924,7.1525574e-07,1.4156103e-05,0.00012040138,0.006416023,0.000102669,0.90210474,0.026772618
0.760396,0.0,2.413988e-06,1.8775463e-06,1.1920929e-07,0.00024291873,0.0002759993,0.000107854605,0.4456793,0.0019571483
7.200241e-05,0.0,2.0861626e-07,5.403161e-05,5.9604645e-08,3.3020973e-05,0.00061902404,2.0861626e-07,0.99992174,1.3411045e-06
1.2516975e-06,0.9978522,7.367134e-05,0.00094148517,4.172325e-06,0.0007226765,0.004747957,0.0,0.9964409,2.259016e-05
0.0013585985,0.0,1.4305115e-06,1.2993813e-05,4.7683716e-07,0.00033438206,0.0010842681,2.1755695e-06,0.99640244,0.0014117956
7.677078e-05,2.9802322e-08,0.99970114,2.8759241e-05,4.7683716e-06,0.00019943714,0.0023004115,2.6583672e-05,0.14106882,3.7252903e-06
0.00016123056,0.9932553,0.001214534,0.12180114,4.068017e-05,0.008404523,6.8575144e-05,1.3411045e-06,0.0167602,0.000813961
0.3158785,0.0,2.4437904e-06,2.9802322e-07,5.9604645e-08,0.000544399,0.00085520744,6.2584877e-07,0.76886743,0.0011359155
2.0861626e-06,0.9902804,2.8908253e-06,0.0008267164,2.9802322e-08,0.001024425,0.0023171008,0.0,0.9934504,0.00022256374
1.6570091e-05,0.99637175,5.6177378e-05,0.006305754,0.0003285706,0.0021278858,0.0038066804,5.9604645e-08,0.64391255,0.0007481575
4.6879053e-05,0.8834425,0.040142596,0.0004937053,0.00014296174,0.004445255,0.0042882264,5.751848e-06,0.0007212162,0.012358904
8.940697e-08,4.172325e-07,0.0004542172,1.9997358e-05,4.0203333e-05,1.0,0.0019588172,2.771616e-06,0.017046541,1.2218952e-06
4.440546e-06,0.7744323,0.018527657,0.00019007921,0.0038814247,0.0062078834,0.08127239,0.00021329522,0.0011499226,0.0033715963
1.49309635e-05,2.2053719e-06,0.9853309,6.109476e-06,9.4771385e-06,0.000110417604,0.0008789003,4.4733286e-05,0.7582432,4.0233135e-06
0.8587575,3.5762787e-07,0.000106692314,0.0,1.1920929e-07,0.00015544891,0.0004903674,0.0002744794,2.9325485e-05,0.5017578
0.0,3.7282705e-05,0.0017183423,0.92509276,0.32703674,0.99998873,0.015603155,1.2516975e-06,0.022673607,5.364418e-07
0.77030945,0.0,1.8447638e-05,6.249547e-05,0.07770541,0.0012972057,0.0013452172,4.3809414e-06,0.016023606,0.0006623268
2.9802322e-08,0.00035822392,1.1265278e-05,0.9999974,0.00022307038,0.057983458,0.022738874,5.9604645e-08,0.2399343,1.7881393e-07
0.08105183,0.0,8.755922e-05,9.804964e-06,2.9802322e-08,5.877018e-05,0.00033441186,0.98085266,8.699298e-05,0.0020040572
0.8789316,0.0,0.0001039207,3.2782555e-06,7.748604e-07,0.00019332767,0.0007456243,0.0057896078,0.009072155,0.007853657
0.813987,1.847744e-06,0.009689629,1.2367964e-05,5.4240227e-06,0.0019328594,0.009041607,0.007876247,0.0019515753,0.004615456
0.9953559,0.0,3.874302e-07,4.7683716e-07,8.940697e-08,0.0002246499,0.00029534101,1.9967556e-06,0.00056988,0.00061520934
9.211898e-05,0.0,0.0,0.0,0.0,0.0,1.9669533e-06,0.0,6.389618e-05,0.9999981
0.0318878,2.9802322e-08,1.1086464e-05,6.16014e-05,4.4703484e-07,0.000101059675,0.055520535,0.1389238,0.09561306,0.001545757
0.00010731816,0.0,5.066395e-07,2.977252e-05,2.2053719e-06,0.00018996,0.0013260245,1.5497208e-06,0.9997655,1.3530254e-05
0.0,6.467104e-06,0.00016787648,0.9999887,0.015515029,0.00020447373,0.008349597,1.4901161e-07,0.0010518134,0.00015863776
0.014137059,0.0,0.0010317862,1.50203705e-05,0.0034659505,0.0017020702,0.0038060248,0.0007433593,0.7848639,0.007373929
1.1920929e-07,0.0075448155,0.00073462725,0.99998283,0.0018764138,0.0018492639,0.015044659,3.1292439e-06,0.08483946,1.9967556e-06
2.631545e-05,0.0,2.3841858e-07,8.940697e-07,4.172325e-07,3.4719706e-05,0.00083971024,1.1920929e-07,0.99988914,1.0192394e-05
0.9973826,0.0,1.7881393e-07,5.9604645e-08,0.0,0.00040450692,0.00040999055,6.854534e-07,0.0016450286,8.970499e-05
0.24290362,3.5762787e-07,0.00036287308,4.9620867e-05,1.7881393e-07,0.005961746,0.097530246,9.304285e-05,0.00024393201,7.393956e-05
0.99407864,2.9802322e-08,6.2584877e-06,1.1920929e-07,1.1920929e-07,0.00033533573,0.0005490482,0.0004825294,3.954768e-05,0.0038273633
0.0,0.0011669695,0.0018026829,0.99984103,0.8280488,0.99712455,0.14357573,5.662441e-07,0.00074261427,1.1920929e-07
0.0439713,2.2053719e-06,0.009647846,1.7136335e-05,5.066395e-07,0.00023892522,0.001429677,0.007566929,0.00028413534,0.8307606
3.0994415e-06,2.9802322e-08,1.2993813e-05,0.9999995,9.23872e-07,8.9854e-05,0.00028643012,1.1920929e-07,1.5616417e-05,7.4505806e-07
0.007353246,3.6388636e-05,4.7683716e-07,2.9802322e-08,8.940697e-08,0.0013365746,0.97712296,2.5421381e-05,8.824468e-05,0.00096043944
0.22947806,0.0,1.3440847e-05,0.0,0.0,1.13248825e-05,0.00025817752,0.9541502,2.7030706e-05,0.00013014674
8.34465e-06,8.940697e-08,2.5242567e-05,0.99999726,0.002103597,0.0023301244,0.0027449727,4.4703484e-07,0.011109889,2.0861626e-07
3.0726194e-05,0.966542,5.3346157e-05,8.9257956e-05,7.748604e-07,0.0057522357,0.015183806,4.172325e-07,0.6350219,0.00077462196
2.0861626e-07,0.0,1.847744e-06,3.4719706e-05,0.0,1.4305115e-06,6.3180923e-06,2.3275614e-05,3.2246113e-05,0.9999045
2.1070242e-05,4.7683716e-07,0.00023573637,2.592802e-06,1.3113022e-06,9.420514e-05,0.0015850067,1.2993813e-05,0.15465969,0.9683801
0.866513,0.0,5.364418e-07,3.5762787e-07,8.940697e-08,0.0001385212,0.00036215782,1.1026859e-06,0.32730353,2.0861626e-05
3.0696392e-06,3.2782555e-07,8.761883e-05,1.0728836e-05,2.6345253e-05,0.99999994,0.0019314587,6.645918e-06,0.097388536,1.5854836e-05
0.0,5.9604645e-07,0.00022876263,0.9999996,0.9949349,0.00027409196,0.00063443184,5.9604645e-08,5.4121017e-05,0.0
0.039522648,0.0,1.7881393e-07,8.34465e-07,0.0,2.0861626e-06,4.634261e-05,0.9589306,2.297759e-05,0.00041523576
0.0006814897,0.0,2.682209e-07,2.682209e-07,0.0,0.00017595291,0.0005784333,8.34465e-07,0.99817073,0.0001629293
0.9938563,0.0,2.3841858e-07,5.662441e-07,0.0,0.00021803379,0.00077337027,3.1232834e-05,2.9355288e-05,0.00061526895
0.0007291734,0.0,4.440546e-06,0.0001617074,4.1127205e-06,1.6331673e-05,5.6803226e-05,0.9636643,0.007160276,0.0003515184
3.4570694e-05,0.0,0.99997663,0.00012692809,0.00026205182,0.00031915307,0.0020013154,1.975894e-05,0.00088334084,3.3080578e-06
0.00014561415,0.0,2.3841858e-07,2.0861626e-07,0.0,2.9325485e-05,0.00025698543,4.5001507e-06,0.9999218,2.2053719e-06
3.6865473e-05,1.6003847e-05,1.1622906e-06,2.965331e-05,1.3709068e-06,0.02280739,0.9894751,1.1920929e-07,0.025656462,0.005039096
0.00071552396,0.0,1.9073486e-06,3.5762787e-07,0.0,6.7055225e-05,0.0006302595,8.910894e-06,0.9901883,0.0032919347
1.013279e-06,1.2308359e-05,0.0002722144,7.4207783e-06,2.1994114e-05,1.0,0.002156049,7.376075e-05,0.006693423,3.0577183e-05
0.9571945,0.0,6.854534e-07,0.0,0.0,2.4974346e-05,0.0002066195,0.006205976,0.0079086125,0.0008124411
0.9800862,2.0861626e-07,0.00011971593,9.23872e-07,8.940697e-08,0.00051909685,0.0021764934,0.00063443184,0.0005964637,0.0024781823
0.00031504035,2.9802322e-07,1.5944242e-05,6.854534e-06,1.6897917e-05,3.5971403e-05,0.0011268854,5.066395e-07,0.9987471,0.00043848157
0.00013160706,3.0100346e-06,2.9802322e-07,1.4901161e-07,0.0,0.0011817813,0.998804,5.9604645e-08,9.357929e-06,0.0001668036
0.99083734,5.9604645e-08,8.7589025e-05,8.940697e-08,8.940697e-08,0.0001680255,0.000274688,0.00014293194,0.00060507655,0.0040649474
1.22487545e-05,2.9802322e-08,7.95722e-06,0.99998987,4.4703484e-07,0.00011149049,0.0011511743,6.854534e-07,7.56979e-05,4.7683716e-07
0.00020429492,0.0,1.6093254e-06,2.503395e-06,0.0,2.0205975e-05,7.18534e-05,0.99985933,7.5012445e-05,2.4437904e-05
0.0017303526,0.0,1.2814999e-06,2.5331974e-06,1.4901161e-07,0.00037434697,0.0024892986,2.0861626e-07,0.9978648,0.00026711822
0.13294396,2.413988e-06,0.00029110909,2.0861626e-07,1.1622906e-06,0.0005273819,0.0028390884,4.36306e-05,0.8438575,0.017859817
1.847744e-06,0.0,1.1026859e-06,1.7881393e-07,0.0,7.122755e-06,0.00013056397,0.999983,0.001152128,3.6984682e-05
4.2319298e-05,3.6507845e-05,1.0162592e-05,3.8444996e-06,5.453825e-06,0.0013266802,0.98978597,3.0994415e-06,0.0006790757,0.014150143
0.017004162,0.0,0.00015315413,7.897615e-06,2.3841858e-07,0.00022399426,0.002971083,8.195639e-06,0.98409855,0.00028687716
1.8775463e-06,0.0,8.940697e-08,0.0,0.0,5.9604645e-08,0.000121325254,0.0,1.0281801e-05,0.9999112
4.142523e-06,1.180172e-05,6.1690807e-06,5.710125e-05,6.854534e-07,0.0011499822,0.012689531,5.9604645e-08,0.89527166,0.27040064
0.015537292,5.9604645e-08,1.4454126e-05,2.0712614e-05,0.0,0.00013464689,0.004000604,8.940697e-06,0.9849139,0.00033837557
7.301569e-06,2.3543835e-06,0.00015810132,2.2768974e-05,2.8550625e-05,0.9999995,0.00210312,7.003546e-05,0.0017249286,2.8431416e-05
0.9992418,0.0,1.7881393e-07,0.0,0.0,0.00016412139,0.00024113059,9.834766e-07,4.8220158e-05,5.4121017e-05
0.9971029,0.0,0.0,8.940697e-08,0.0,0.00016596913,0.0004364252,2.5331974e-06,0.000720948,2.6583672e-05
0.9821235,0.0,8.34465e-07,0.0,0.0,2.887845e-05,0.00011628866,0.00043305755,0.00022959709,0.0013805628
0.9935323,0.0,0.00018435717,1.7881393e-07,8.940697e-08,0.00053569674,0.0007427931,6.297231e-05,0.00016969442,0.00014665723
1.9043684e-05,0.0,2.9802322e-08,6.377697e-06,1.1920929e-07,3.9756298e-05,0.00040733814,2.9802322e-07,0.99990654,2.1457672e-06
0.9952239,2.0861626e-07,9.387732e-06,1.4901161e-07,2.9802322e-07,0.0003977716,0.00083601475,3.620982e-05,0.00024300814,0.0026687682
0.00069049,2.861023e-06,0.00020718575,2.2530556e-05,1.2993813e-05,0.9999877,0.0059174895,9.596348e-06,0.010738552,5.3703785e-05
0.121896,0.0,1.4603138e-06,3.233552e-05,0.0,0.0010343194,0.00050771236,3.2782555e-07,0.9494231,0.0001424551
0.16448954,0.0,2.3514032e-05,1.7881393e-07,0.0,5.686283e-05,0.00059840083,0.9704628,4.6998262e-05,0.00055512786
0.0009484887,0.97601664,0.0030597448,2.5212765e-05,1.0222197e-05,0.001627028,0.0011060834,1.3440847e-05,0.0038444996,0.016636848
2.8669834e-05,0.99828815,0.0010467172,0.0007170737,6.9618225e-05,0.0069962144,0.0004517138,0.00022298098,0.028183997,0.0069043636
0.9988226,0.0,5.9604645e-08,0.0,0.0,9.658933e-05,0.00021263957,1.1563301e-05,2.0205975e-05,0.0001733005
0.00017651916,1.0728836e-06,0.0003092289,7.161498e-05,0.00012061,0.9999945,0.00348863,3.6656857e-06,0.036174595,2.8908253e-06
0.9988723,0.0,1.7881393e-07,0.0,0.0,0.00017011166,0.00022020936,1.1920929e-07,0.00012218952,0.00020471215
1.168251e-05,2.682209e-07,4.4614077e-05,0.99986124,0.7596344,0.0011078715,0.001514554,2.9802322e-07,0.35035115,1.7881393e-07
0.00062689185,0.0,5.1528215e-05,9.089708e-06,2.4735928e-06,9.62913e-05,0.0020080805,4.7385693e-06,0.9992358,0.00012269616
0.559499,0.0,4.172325e-07,2.9802322e-08,0.0,1.0341406e-05,0.00011906028,0.10672897,0.00011900067,0.012054294
0.008667558,0.0,6.7949295e-06,1.424551e-05,6.109476e-06,0.00012907386,0.0002978444,5.081296e-05,0.98074293,0.00041395426
0.9962082,0.0,1.5795231e-06,1.1920929e-07,0.0,0.0010828674,0.00040894747,6.6161156e-06,4.926324e-05,0.0011206567
0.000151366,0.0,0.0010655522,0.000111699104,9.745359e-06,3.6239624e-05,0.0015194118,2.8669834e-05,0.99938065,5.64456e-05
3.2782555e-06,8.940697e-08,4.3809414e-06,0.9999922,1.6391277e-06,0.00025972724,0.0012834966,0.0,0.19086075,2.399087e-05
0.98642683,2.9802322e-08,4.798174e-06,4.7683716e-07,1.9073486e-06,0.00046873093,0.0008237064,3.33786e-06,0.00029164553,0.00976336
0.012131721,0.0,2.9802322e-07,1.9967556e-06,0.0,8.8483095e-05,0.0003195107,2.9802322e-07,0.9961132,8.7052584e-05
5.066395e-07,1.937151e-06,0.00016152859,4.23193e-06,8.940697e-08,1.0,0.002132088,4.8577785e-06,0.002588451,2.5629997e-06
0.88952994,0.0,8.761883e-06,6.735325e-06,1.2814999e-06,0.0018968582,0.001671046,1.7285347e-06,0.2884278,0.00019401312
0.0042020082,2.9802322e-08,2.8908253e-06,5.4240227e-06,0.0,0.00038024783,0.0010932982,3.5762787e-07,0.99498093,0.001422435
1.0222197e-05,0.0,1.8954277e-05,0.99997866,2.9802322e-08,0.000110536814,0.0013185143,4.61936e-06,2.0623207e-05,2.3841858e-07
0.9802033,0.0,2.682209e-07,2.9802322e-07,1.7285347e-06,0.00026088953,0.00022438169,0.00036469102,0.0015702546,0.0006766319
2.9802322e-07,2.938509e-05,0.0002938211,0.9999962,0.000798434,0.0013188422,0.04041484,9.23872e-07,0.00011357665,1.0728836e-06
8.940697e-08,1.1920929e-07,1.1920929e-06,0.9999981,0.00050106645,0.00043278933,0.0010759234,0.0,0.07855192,5.9604645e-08
4.23193e-06,3.874302e-07,1.4901161e-06,2.9802322e-07,2.9802322e-08,0.000533551,0.502338,0.9205451,0.00049471855,0.000112861395
2.670288e-05,1.1920929e-07,9.23872e-06,6.2584877e-07,1.1324883e-06,9.095669e-05,0.0016649961,6.4969063e-06,0.05028996,0.9941671
4.172325e-07,0.0,2.5749207e-05,0.9999967,0.007989019,0.0003362298,0.0026742518,5.9604645e-08,0.0017685592,2.3841858e-07
0.0973292,7.4505806e-07,3.6358833e-06,0.0003646016,2.3543835e-06,0.00026085973,0.00043907762,1.7285347e-06,0.92856175,0.0017163754
5.9604645e-08,0.9988776,2.655387e-05,0.3523873,6.556511e-06,0.0021356046,0.00027996302,0.0,0.9969431,4.4703484e-06
1.4722347e-05,7.748604e-07,3.373623e-05,0.9999944,3.5852194e-05,0.00021597743,0.00035369396,7.1525574e-07,0.00016883016,4.172325e-06
0.003889352,2.9802322e-08,4.261732e-06,9.4771385e-06,2.682209e-07,0.0001476109,0.0003350377,2.4735928e-06,0.076882005,0.9753227
0.0,8.940697e-08,7.95722e-06,0.9999988,0.0016467869,0.00016134977,0.00072079897,1.8298626e-05,4.196167e-05,1.6987324e-06
0.0005571246,4.6789646e-06,5.9604645e-08,2.0861626e-07,5.9604645e-08,0.0024640262,0.92109483,0.0,0.6520133,0.0071175992
0.0004930794,2.9802322e-08,0.9991261,0.00020363927,0.00052654743,9.9122524e-05,0.005689472,1.04904175e-05,0.021534264,3.0875206e-05
0.98140717,0.0,7.748604e-07,1.7881393e-07,0.0,0.00044336915,0.00037765503,0.00012612343,9.059906e-05,0.0112250745
0.90914696,2.682209e-07,1.9669533e-06,1.4841557e-05,1.7881393e-07,0.0012726188,0.0011558235,8.752942e-05,0.122487605,0.0030691028
0.0014914274,1.4901161e-06,0.0031848252,3.8295984e-05,7.6293945e-06,0.99811804,0.0012003779,0.00017085671,0.00043287873,9.9003315e-05
4.324317e-05,2.9802322e-08,2.9802322e-08,0.0,0.0,5.9604645e-08,7.390976e-06,0.0,0.00029844046,0.99997246
0.995896,0.0,5.930662e-06,0.0,0.0,0.0004402697,0.00018846989,7.471442e-05,0.00015309453,9.87947e-05
0.0016101003,0.0,1.013279e-06,2.5331974e-06,0.0,0.00016000867,0.00038173795,2.0563602e-06,0.99910116,2.861023e-05
0.9683893,0.0,2.0474195e-05,9.506941e-06,1.692772e-05,0.00043225288,0.00031057,4.6789646e-06,0.0025037825,0.0052810907
0.9774684,0.0,2.3841858e-07,5.9604645e-08,0.0,0.00018498302,0.00029343367,1.937151e-06,0.023335785,0.00016391277
0.0002181828,2.3007393e-05,6.854534e-07,3.1888485e-06,3.9339066e-06,0.001652509,0.99903095,8.940697e-08,0.003573954,0.0011158586
0.44354457,2.0861626e-07,0.7670559,1.9550323e-05,7.3611736e-06,0.00022408366,0.0019684732,0.0032465756,0.0002452433,0.0012953877
0.95828307,0.0,0.00010600686,0.0,1.3709068e-06,2.6375055e-05,0.00016915798,0.004918605,3.5226345e-05,0.003927201
4.634261e-05,0.0,1.296401e-05,9.23872e-07,4.7266483e-05,5.1677227e-05,0.00021716952,6.568432e-05,5.4955482e-05,0.9972964
5.978346e-05,0.9327497,0.0004631579,0.00064983964,3.787875e-05,0.01932767,0.009405255,5.9604645e-08,0.37711015,0.0356763
0.9886599,2.9802322e-07,1.9669533e-05,1.1920929e-07,2.9802322e-08,0.00041487813,0.0014226735,3.5077333e-05,0.00017160177,0.016304165
1.3709068e-06,4.172325e-07,2.425909e-05,0.999979,0.009871185,0.00047811866,0.006323725,1.1920929e-07,0.5602826,8.940697e-08
0.104697704,0.0,0.9390892,2.3245811e-06,2.9206276e-06,0.00030210614,0.0015742779,0.0005262196,0.01554352,0.00020334125
0.037448168,0.0,2.592802e-06,1.1622906e-06,5.9604645e-08,0.00042510033,0.0013359785,4.976988e-06,0.87468636,0.010397613
0.0,0.0001911819,0.9294034,0.9678248,1.3023615e-05,0.00029224157,0.010714203,0.0,0.99900347,0.0
0.8073877,8.940697e-08,0.0012414753,5.3972006e-05,4.4703484e-07,0.00033807755,0.0020411909,0.17188513,0.0010926723,0.0012562275
0.00046253204,2.3841858e-07,0.76293707,3.1352043e-05,5.4091215e-05,7.748604e-05,0.007566005,4.503131e-05,0.9942738,4.029274e-05
0.9854068,0.0,7.748604e-07,5.9604645e-08,1.013279e-06,0.00097343326,0.0010778904,8.6426735e-07,0.0023671985,0.0008658767
0.0,7.2717667e-06,1.9997358e-05,0.9999801,2.8818846e-05,0.00014078617,0.021631747,6.556511e-06,0.9908217,0.0
1.1831522e-05,8.940697e-08,2.3245811e-06,0.99999404,0.0,0.0004478991,0.0004477799,5.364418e-07,2.0384789e-05,3.874302e-07
0.00024172664,6.4730644e-05,8.660555e-05,2.4318695e-05,4.172325e-07,0.00020891428,0.010990143,5.662441e-07,0.9977019,0.0004387498
0.0,0.94856966,0.0026711226,0.9999351,0.5037467,0.21402496,0.0068747103,3.5762787e-07,0.052146614,1.4901161e-07
0.9843497,0.0,7.480383e-06,8.374453e-06,2.9802322e-07,0.0018881261,0.0006659925,0.00026714802,0.0002885759,0.0050559044
8.046627e-06,0.97690487,0.0012040436,0.0009213388,5.9604645e-06,0.008949846,0.017736733,1.1920929e-07,0.9261379,0.0017802119
0.9990856,0.0,0.0,2.9802322e-08,0.0,0.0005837381,0.00028166175,1.4901161e-07,0.00013318658,4.8995018e-05
0.00015601516,0.0,3.2812357e-05,1.0043383e-05,9.834766e-07,2.0176172e-05,0.00058564544,7.897615e-06,0.9996654,8.583069e-06
0.000106185675,5.364418e-06,0.000700742,7.2717667e-06,2.3841858e-07,4.681945e-05,0.0016796291,5.2452087e-06,0.996474,0.0026368499
7.748604e-07,0.9977808,0.00034341216,0.64862716,0.000331223,0.022672325,0.0001887083,0.0,0.47993484,0.00012660027
0.78772354,0.0,7.1525574e-07,4.172325e-07,0.0,0.00052919984,0.00038665533,0.00013378263,0.23061177,0.00020819902
5.9604645e-08,1.0728836e-06,8.162856e-05,0.0005046725,0.00019967556,1.0,0.0018654466,1.1622906e-05,0.0061648786,1.6093254e-06
0.94092345,0.0,3.9339066e-06,0.0,0.0,5.480647e-05,9.146333e-05,0.0042490065,5.5760145e-05,0.0037785769
3.874302e-06,0.0,2.8908253e-06,2.1457672e-06,0.0,4.440546e-06,0.00083082914,0.9631316,0.99950236,4.440546e-06
0.00012111664,0.9816029,0.0021604002,0.0023584068,9.804964e-06,0.0023592114,0.008330852,5.066395e-07,0.9604851,0.0023510158
0.95214313,5.9604645e-08,9.804964e-06,0.0,0.0,0.00028172135,0.00077176094,1.04904175e-05,3.7252903e-05,0.074307024
7.1555376e-05,0.0005081296,0.000870198,0.00017037988,1.2278557e-05,0.9995096,0.09645638,4.5627356e-05,0.23209849,0.0013656914
7.9900026e-05,5.9604645e-08,3.2782555e-06,3.0040741e-05,1.1920929e-07,3.6358833e-05,0.00095781684,2.9802322e-06,0.9999138,2.6524067e-06
0.0002156496,0.80532706,0.0013742447,0.24255118,2.3424625e-05,0.005725771,0.0033548176,8.5532665e-06,0.6708808,0.027872115
1.0848045e-05,0.00079265237,0.005151123,0.051535636,0.13871431,0.9984703,0.03274542,0.0005554557,0.003562808,0.0010596216
1.3887882e-05,2.0861626e-07,6.708503e-05,6.2584877e-07,9.030104e-06,0.0001488924,0.0005724728,0.0017309487,0.004021138,0.9871347
0.025672555,2.3841858e-06,2.2888184e-05,0.9270198,2.399087e-05,0.0021204352,0.0041846037,1.2218952e-06,0.23871121,0.00040480494
9.647012e-05,0.0,7.778406e-06,1.1026859e-06,0.0,4.053116e-05,0.0014845431,1.013279e-06,0.99987245,9.5665455e-06
9.894371e-06,0.0,1.2606382e-05,2.6792288e-05,1.66893e-06,6.2286854e-06,0.00097602606,2.2262335e-05,0.999944,2.8014183e-06
1.14142895e-05,0.0,1.0669231e-05,0.9999571,2.9802322e-07,0.0009825826,0.003979087,3.1590462e-06,0.055748254,6.5267086e-06
3.0487776e-05,7.6293945e-06,0.0044802725,1.6391277e-05,7.301569e-06,0.99998325,0.00435099,3.889203e-05,0.0674777,8.5383654e-05
0.00020840764,7.4505806e-07,0.99852645,4.9471855e-06,4.0888786e-05,0.00054460764,0.003248632,3.2812357e-05,0.22551024,4.1604042e-05
0.53215206,2.9802322e-08,7.2300434e-05,1.1026859e-06,9.149313e-06,4.4465065e-05,0.00039052963,0.05662039,0.012684584,0.03579554
0.00015169382,2.849102e-05,4.7683716e-07,4.172325e-07,1.5497208e-06,0.022503525,0.9524108,3.3080578e-06,0.00012531877,0.0006417334
0.9987023,0.0,2.9802322e-08,2.9802322e-08,0.0,0.00011816621,0.0001963377,2.6524067e-06,0.00019672513,9.229779e-05
4.976988e-06,0.0,1.4901161e-07,0.999976,2.9802322e-08,0.0009087622,0.0019039214,1.4901161e-07,0.0039514303,8.940697e-08
0.0003349483,0.0,2.130866e-05,3.5762787e-07,1.0728836e-06,0.00018331409,0.8363496,1.3113022e-06,0.00092330575,0.2667119
0.00013750792,0.0,1.1920929e-07,2.7626753e-05,0.0,8.973479e-05,0.00050380826,1.2516975e-06,0.99985814,1.3202429e-05
0.0032046437,9.23872e-07,9.536743e-07,3.245473e-05,1.7285347e-06,0.0008186698,0.0035202503,1.4901161e-07,0.89458567,0.32357377
2.0861626e-07,0.5235985,0.027571231,0.9841061,0.00028789043,0.00081014633,0.044945538,5.9604645e-08,0.99474597,8.34465e-07
0.9953207,0.0,8.34465e-07,2.9802322e-08,8.940697e-08,0.000112473965,0.00039839745,4.643202e-05,0.00011920929,0.0006162524
0.99431384,0.0,4.3809414e-06,2.9802322e-07,8.940697e-08,0.0014714301,0.002717197,2.95043e-06,0.0009031296,0.00049060583
0.979251,0.0,6.2584877e-07,2.1457672e-06,0.0,0.0021438003,0.0015085638,3.963709e-06,0.0074187815,0.0017465055
0.0008368492,0.0,2.3841858e-06,1.66893e-06,4.914403e-05,0.00015586615,0.0034053028,2.95043e-06,0.99724644,4.5120716e-05
0.2908738,0.0,1.4007092e-06,3.427267e-06,8.34465e-07,0.0006335974,0.0014060438,1.2516975e-06,0.9072691,0.0005939305
3.477931e-05,0.0,2.2649765e-06,3.7252903e-06,1.1920929e-07,2.6196241e-05,0.00027793646,0.9998951,0.0004760027,3.811717e-05
0.99727833,0.0,4.172325e-07,5.9604645e-08,0.0,0.0005815029,0.00038439035,1.4603138e-06,0.00026020408,0.000174433
5.662441e-07,0.00020217896,0.9862329,0.020065755,0.0006825626,0.99979395,0.025167048,8.440018e-05,0.26651323,2.5331974e-06
0.23441464,0.0,1.3411045e-06,2.9981136e-05,6.1661005e-05,0.00011780858,0.0011964738,1.1980534e-05,0.5770449,0.00046792626
0.67452955,8.046627e-07,0.004735142,9.253621e-05,8.106232e-06,0.0003105402,0.0026256144,1.9401312e-05,0.0030770004,0.00059747696
0.00095528364,0.0,0.00023716688,2.297759e-05,0.006708026,0.00012344122,0.003686279,1.7285347e-06,0.98260903,0.0010920465
7.43866e-05,2.9802322e-08,1.3411045e-06,0.0001732707,5.9604645e-08,4.968047e-05,0.00048047304,3.993511e-06,0.99987966,1.975894e-05
0.0007328093,3.2782555e-07,0.00017726421,3.9607286e-05,0.0038533807,0.0050100684,0.8179158,4.4703484e-06,0.00034838915,0.00076282024
0.0047623217,0.0,5.364418e-07,4.172325e-07,0.0,0.00020202994,0.00047531724,1.1622906e-06,0.99106,0.0014666319
0.985096,2.9802322e-08,3.2782555e-06,1.4901161e-06,2.1457672e-06,0.0001256764,0.00014463067,9.000301e-06,8.323789e-05,0.012459099
0.9868782,0.0,1.3411045e-06,1.4901161e-06,3.5762787e-07,0.0007685423,0.0010282993,3.272295e-05,0.00024321675,0.0037899613
0.0013060868,0.0,2.0861626e-07,1.7881393e-07,2.9802322e-08,1.6748905e-05,0.00034481287,0.99866533,0.00022873282,0.000110298395
1.9669533e-05,6.824732e-06,3.6746264e-05,0.00026389956,3.9726496e-05,0.99997884,0.004032314,2.6226044e-06,8.5383654e-05,5.2124262e-05
0.0013321638,2.9802322e-07,2.193451e-05,5.066395e-06,1.1920929e-07,0.00033673644,0.013163596,1.8835068e-05,0.9953286,0.00028407574
0.0004631281,1.7881393e-07,5.5849552e-05,3.412366e-05,0.0001758039,3.835559e-05,0.0015443861,1.1026859e-06,0.9947958,0.0011391342
2.2649765e-06,1.6152859e-05,0.97720474,0.00013205409,5.2183867e-05,0.0006389618,0.015451282,1.3411045e-06,0.9940915,3.427267e-06
0.0,0.0001321435,3.2484531e-06,0.99999094,4.1127205e-06,0.006717801,0.067160875,0.0,0.7698574,2.682209e-06
3.4570694e-06,2.682209e-07,0.0014954805,1.8179417e-06,1.6093254e-05,6.0498714e-05,0.00016868114,0.0,1.642108e-05,0.9979794
0.029416531,5.9604645e-08,0.0030299425,7.933378e-05,0.00026983023,0.00014919043,0.003453195,9.298325e-06,0.82580036,0.0005068779
0.03590703,3.874302e-07,0.0003182888,0.00013682246,0.00013640523,0.0008485317,0.01232475,0.00031536818,0.078529775,0.035684764
0.9827371,0.0,1.3709068e-05,1.1920929e-07,1.1920929e-07,0.000115573406,0.00043049455,0.0008546412,7.1942806e-05,0.0012542903
0.977824,0.0,3.6358833e-06,2.9802322e-07,8.34465e-07,0.00011962652,0.0004104972,0.00012546778,0.0004954636,0.013730168
0.0007703304,0.44222292,0.003019154,8.901954e-05,7.554889e-05,0.027243793,0.10902622,0.00011762977,0.11139384,0.18592715
8.711219e-05,1.1920929e-07,0.000154078,4.2766333e-05,6.3180923e-06,0.00014841557,0.0036392808,1.49309635e-05,0.096310705,0.9557095
2.9802322e-07,2.9802322e-08,0.9996536,0.0006400943,0.36379713,9.1552734e-05,0.003064841,1.3709068e-06,0.99214333,4.172325e-07
0.95047057,5.9604645e-08,0.053515017,5.364418e-07,5.9604645e-08,0.00013375282,0.00093203783,0.00048351288,0.000390023,0.00012940168
8.34465e-07,0.0031841397,0.014718562,0.9991042,0.00027135015,0.00033199787,0.0022611618,5.9604645e-08,0.9470123,4.5001507e-06
0.00017511845,0.99213934,0.0013694763,0.0023708344,1.4603138e-05,0.027032971,0.009101689,2.115965e-06,0.1116918,0.0016830862
6.3985586e-05,0.0,1.7881393e-07,0.000102072954,1.4901161e-07,0.007093847,0.007813036,9.23872e-07,0.9986713,0.00023600459
5.9604645e-07,2.3245811e-06,0.9987922,0.0026175082,1.79708e-05,0.1988459,0.0021002889,1.6391277e-06,0.2011708,2.0861626e-07
0.7866013,0.0,2.3841858e-07,2.0861626e-07,0.0,0.0001924038,0.00019693375,0.0003453493,0.19619623,2.2232533e-05
0.4713967,0.0,5.877018e-05,0.0,0.0,1.3709068e-06,9.679794e-05,0.6673602,0.000395149,0.00090280175
0.98672307,0.0,1.7881393e-07,0.0,0.0,4.053116e-06,0.00012037158,0.00090262294,1.66893e-06,2.8550625e-05
1.1920929e-07,1.7881393e-07,7.545948e-05,3.2782555e-06,1.7881393e-06,1.0,0.00094532967,4.23193e-06,0.80043864,1.835823e-05
0.4711225,0.0,6.854534e-07,1.2457371e-05,8.940697e-07,0.00031498075,0.00048717856,6.28829e-06,0.8094516,9.638071e-05
0.0040872395,0.0,3.1888485e-06,3.3676624e-06,1.4901161e-07,7.227063e-05,0.00039198995,3.412366e-05,0.96805423,0.0074370503
0.0534786,0.0,4.0471554e-05,2.0861626e-06,1.0728836e-06,0.0015118122,0.0018312633,1.0609627e-05,0.9368888,0.005694926
0.0,7.748604e-07,0.00040984154,5.4240227e-06,1.859665e-05,1.0,0.0012717843,1.013279e-06,0.45989695,2.6226044e-06
7.1525574e-07,0.010596067,0.015387744,0.017852455,0.0005503595,0.7726387,0.5866164,1.9520521e-05,0.0013219416,0.003156066
0.8174522,9.23872e-07,0.00039365888,1.92523e-05,2.2053719e-06,0.00023117661,0.0013822913,0.0039478242,0.00042328238,0.3386352
3.5077333e-05,0.0,1.5199184e-05,2.399087e-05,6.7949295e-06,0.00019654632,0.00051760674,0.9986557,0.0017949343,0.002414614
1.7881393e-06,0.0,1.347065e-05,0.00018009543,0.99871147,4.172325e-06,0.0011679828,9.381771e-05,0.0140478015,0.0005928576
7.5399876e-06,0.0030251145,0.0038138628,2.0563602e-06,6.6161156e-06,0.88362837,0.25622958,1.22487545e-05,0.15161508,0.019620508
0.99390453,0.0,1.4901161e-07,3.5762787e-07,2.0861626e-07,0.00058048964,0.0006160736,2.3841858e-07,0.0020461082,0.00019481778
3.695488e-06,0.0,7.748604e-07,0.99996686,3.4868717e-06,0.00054124,0.0005812645,3.2782555e-07,0.06312081,1.7881393e-07
0.0002449751,2.9802322e-07,0.0020887852,1.257658e-05,0.0020342767,0.00011214614,0.0020694435,5.2839518e-05,0.97529745,0.010699242
0.0046616197,1.6182661e-05,0.97316515,0.00017312169,0.002080351,0.0014732182,0.0151536465,0.004898727,0.16422,0.00028923154
0.00036099553,9.685755e-06,4.827976e-06,8.34465e-07,1.1622906e-06,0.000585109,0.9932836,9.983778e-06,0.0036002994,0.0060165823
0.48298758,2.7120113e-06,1.6748905e-05,1.7523766e-05,1.2516975e-06,0.0028174222,0.0034792125,1.7881393e-07,0.4567994,0.010658026
1.8686056e-05,0.0018751025,0.005902469,0.0013557076,0.00015440583,0.9689603,0.4293344,0.00032302737,0.017171383,0.0024535358
3.0696392e-06,6.3180923e-06,1.1056662e-05,9.137392e-05,2.0861626e-05,0.99950707,0.39195964,6.645918e-06,0.012502044,3.811717e-05
0.98915553,0.0,6.854534e-07,4.5895576e-06,2.682209e-07,0.00080662966,0.00061291456,8.046627e-06,0.0005439222,0.002601415
8.2850456e-05,6.5863132e-06,0.000246346,4.5001507e-06,2.9802322e-07,1.1622906e-05,0.00043588877,4.7683716e-07,0.0010947883,0.9989536
5.2452087e-05,1.3500452e-05,0.00043198466,0.00036934018,8.0019236e-05,0.9998199,0.026407182,1.4692545e-05,0.3391772,0.00012660027
0.99731183,0.0,2.0861626e-07,0.0,0.0,0.00017866492,0.00027617812,0.00020128489,3.9935112e-05,0.0002488196
2.3841858e-07,5.364418e-07,0.99700767,0.9993887,0.00021898746,0.00016191602,0.0019305944,2.0861626e-07,0.13219377,8.940697e-08
0.18822825,0.0,6.377697e-06,1.66893e-06,0.0,0.00052794814,0.00037822127,1.180172e-05,0.9225403,0.00031355023
0.5206487,0.0,1.1533499e-05,4.7683716e-07,5.9604645e-08,8.4489584e-05,0.00060012937,0.86318225,0.00014930964,0.00023114681
0.0013067126,0.0,4.887581e-06,1.7881393e-06,5.364418e-07,1.513958e-05,0.00018537045,0.06852186,0.00056293607,0.6193503
0.3912425,0.0,9.268522e-06,3.0696392e-06,1.5497208e-06,0.0015270412,0.0013079941,5.2452087e-06,0.5906701,0.0014429092
0.97788477,5.2452087e-06,7.814169e-05,8.940697e-07,6.2584877e-07,0.0012364984,0.008067429,2.8133392e-05,0.00019219518,0.007762313
0.43506473,4.7683716e-07,0.00037920475,2.3454428e-05,3.4570694e-06,0.003241539,0.0017554164,9.655952e-06,0.013975441,0.46263465
0.0008330047,0.0,7.492304e-05,0.0001116097,0.99718475,0.00027358532,0.0042820573,4.887581e-06,0.062734604,0.026598036
0.9964318,0.0,1.4007092e-06,5.9604645e-08,1.1920929e-07,0.00012639165,0.00025334954,3.0070543e-05,1.3053417e-05,0.0014273524
0.00011149049,0.01594621,0.0016010404,0.00036036968,3.07858e-05,0.0012350976,0.38367912,4.7385693e-06,0.8892164,0.0034748912
0.92264926,1.7881393e-07,8.940697e-07,3.4570694e-06,1.4901161e-07,0.00044113398,0.0009801388,5.9604645e-08,0.2738143,5.8412552e-05
0.00011906028,0.0,6.854534e-07,4.172325e-07,5.9604645e-08,0.0001732111,0.0049800277,0.0,0.9959898,0.0031999648
3.5762787e-07,0.95773476,0.0044354796,0.999847,0.000756979,0.012065321,0.110916674,3.2782555e-07,0.9234769,7.599592e-06
0.99557143,0.0,6.824732e-06,2.9802322e-08,0.0,0.0005771816,0.000505358,0.000102221966,0.00010737777,0.00048172474
0.5449306,8.940697e-08,0.000308156,8.940697e-08,1.4901161e-07,2.7656555e-05,0.00033208728,0.014087111,8.106232e-06,0.37652177
0.99355674,0.0,2.9802322e-08,2.9802322e-08,0.0,6.0796738e-05,0.00022083521,6.479025e-05,0.00029954314,4.5210123e-05
0.91807747,0.0,4.082918e-06,1.0609627e-05,5.066395e-07,0.0015235543,0.0024197698,2.2739172e-05,0.010689259,0.016851783
0.16571486,1.1920929e-07,3.874302e-07,6.377697e-06,1.0937452e-05,0.0011688173,0.0044520795,1.9669533e-06,0.16800636,0.40147305
0.9852214,5.9604645e-08,0.0001064837,2.771616e-06,0.0,0.001775682,0.0074448287,0.00012773275,0.00063440204,0.0018407106
0.99655414,1.4901161e-07,1.4603138e-06,2.9802322e-07,8.940697e-08,0.00051003695,7.221103e-05,1.5497208e-06,0.0009123385,0.000546664
1.8775463e-06,0.0,8.940697e-08,0.0,0.0,5.9604645e-08,0.000121325254,0.0,1.0281801e-05,0.9999112
9.211898e-05,0.0,0.0,0.0,0.0,0.0,1.9669533e-06,0.0,6.389618e-05,0.9999981
7.748604e-07,0.9913273,4.4196844e-05,0.94143677,6.4998865e-05,0.023602098,0.008710086,1.7881393e-07,0.0045823753,0.000305593
0.00014650822,0.99694324,0.002280414,0.00031420588,3.606081e-05,0.0049368143,0.00077590346,9.834766e-07,0.010178357,0.003043294
6.4969063e-06,1.4901161e-07,0.002620101,9.545684e-05,0.9964582,0.00027057528,0.000734359,5.4359436e-05,0.06922248,0.00022059679
0.9967686,0.0,2.9802322e-08,2.9802322e-08,0.0,0.00027108192,0.0003682673,1.9937754e-05,5.5730343e-05,0.00010627508
2.1457672e-05,2.9802322e-07,2.554059e-05,0.00043052435,8.940697e-07,0.0017488301,0.065657705,4.7683716e-07,0.99897724,0.00022938848
0.99758726,0.0,1.0430813e-06,8.34465e-07,5.9604645e-08,0.00086930394,0.002007395,2.4437904e-06,0.00015640259,0.000248909
6.0379505e-05,4.172325e-07,0.00011643767,0.9999635,2.527237e-05,0.00091186166,0.0020284653,6.1392784e-06,0.00010326505,1.6868114e-05
1.7881393e-07,0.0,0.9981221,0.00015541911,0.95914245,2.5242567e-05,0.0022244453,3.5464764e-06,0.99865234,2.9802322e-07
5.6803226e-05,7.301569e-05,0.00930056,0.00017669797,0.00018185377,0.0014046729,0.010289401,5.9604645e-06,0.010125428,0.8241184
9.211898e-05,0.0,0.0,0.0,0.0,0.0,1.9669533e-06,0.0,6.389618e-05,0.9999981
3.3795834e-05,1.7881393e-07,2.8371811e-05,0.9999949,5.9604645e-07,0.00045704842,0.0012019575,8.34465e-07,7.402897e-05,2.0861626e-07
0.9776306,0.0,1.3709068e-06,9.834766e-07,6.2584877e-07,0.0038577318,0.0031480193,0.00059968233,0.0001872778,0.0029917657
0.06458968,0.0,3.1620264e-05,2.0563602e-06,3.5762787e-07,0.00037941337,0.00070402026,2.7090311e-05,0.98194224,0.00010988116
0.99696004,0.0,3.5762787e-07,0.0,0.0,0.0005622804,0.00032752752,3.167987e-05,2.3037195e-05,0.0001873374
0.97712517,0.0,1.1503696e-05,2.2351742e-06,8.940697e-08,0.0018308759,0.0009937882,1.2993813e-05,0.00010806322,0.0024888515
0.0037605464,1.0371208e-05,4.8577785e-06,1.9967556e-06,8.940697e-07,0.0016953349,0.9912025,9.9003315e-05,0.0065374076,0.0007393658
0.009407908,8.940697e-08,3.3825636e-05,0.10930511,0.083957404,0.0008690059,0.0021280944,2.8908253e-06,0.51123816,0.0003876984
0.013524264,0.0,4.172325e-07,1.3709068e-06,2.3841858e-07,0.0001719594,0.0009676218,2.0861626e-07,0.99570596,3.6090612e-05
0.9606279,0.0,1.4603138e-06,4.172325e-07,0.0,0.00012868643,0.00024572015,0.018338442,0.00044631958,0.000970453
2.9802322e-08,0.0021914244,0.042277843,0.99999607,3.889203e-05,0.00045272708,0.002501905,0.0,0.23350841,2.2053719e-06
0.0,0.0012643635,0.00021272898,0.99999195,0.00022059679,0.0011428595,0.15492773,5.9604645e-08,0.96798176,3.2782555e-07
5.662441e-07,6.854534e-07,0.9982436,0.9959594,1.7285347e-05,0.00024420023,0.0012815595,4.7683716e-07,0.0012371838,7.0631504e-05
0.7352136,0.0,0.0004416108,8.940697e-07,1.4305115e-06,0.00017774105,0.0008314848,0.0010241866,0.06608686,0.003579557
0.006791234,0.0,1.0728836e-06,4.61936e-05,0.0,0.0026938021,0.0019887984,1.2427568e-05,0.9897997,0.0007510483
0.005671203,7.18832e-05,3.5345554e-05,0.00015452504,3.33786e-06,0.003155142,0.028638452,6.2584877e-07,0.9758384,0.012910038
0.011691809,8.940697e-08,1.04010105e-05,7.778406e-06,2.3841858e-07,0.0001732707,0.0023334026,1.1920929e-06,0.9920685,0.00044125319
0.9769107,0.0,2.8312206e-06,7.748604e-07,7.7188015e-06,0.00038400292,0.00069975853,2.8759241e-05,0.00018849969,0.0032386482
2.9802322e-08,0.002655983,7.414818e-05,0.9999394,2.5600195e-05,0.0017412901,0.024336994,8.940697e-08,0.9712031,6.020069e-06
8.940697e-08,0.00035238266,0.9358485,5.325675e-05,4.1425228e-05,0.00027287006,0.77559614,1.1950731e-05,0.99623615,5.066395e-06
0.16270688,0.0,1.1920929e-07,4.4703484e-07,0.0,3.6001205e-05,0.0003759563,3.1888485e-06,0.92680365,2.3722649e-05
0.9960245,0.0,1.5497208e-06,1.4901161e-07,1.1920929e-07,0.00063189864,0.0008366108,9.119511e-06,3.311038e-05,0.0005043447
6.854534e-07,9.834766e-07,2.2917986e-05,0.99999607,0.000695467,0.00051385164,0.004621595,2.9802322e-08,0.11562228,3.3676624e-06
2.9802322e-07,4.172325e-07,0.005307168,0.9999944,0.10412145,0.00061130524,0.0031416416,1.1920929e-07,0.0014806986,2.0861626e-07
4.643202e-05,0.9953506,0.00045222044,2.4318695e-05,3.0994415e-06,0.005065948,0.0025340915,4.172325e-07,0.0019776523,0.0043843687
0.02165538,0.0,5.364418e-07,0.0,0.0,3.4868717e-06,0.0004080832,2.1755695e-06,0.99318534,4.1127205e-06
4.053116e-06,0.0061298013,1.1056662e-05,0.011308283,1.49309635e-05,0.039093554,0.83919954,3.874302e-07,0.34228337,0.015279055
0.01139465,0.96121794,0.00030952692,1.4305115e-05,1.4603138e-06,0.0063322186,0.0010871589,0.0,0.0076363385,0.0010849237
0.9965267,0.0,1.4901161e-07,2.0861626e-07,0.0,0.00073617697,0.00066035986,7.748604e-07,0.001327008,0.00016644597
9.211898e-05,0.0,0.0,0.0,0.0,0.0,1.9669533e-06,0.0,6.389618e-05,0.9999981
0.0043441355,5.9604645e-08,3.7252903e-06,1.2367964e-05,0.0,1.9967556e-05,0.0002540052,1.3113022e-06,0.008224815,0.9765171
0.0008510947,5.9604645e-08,7.325411e-05,1.3500452e-05,2.9802322e-08,0.00051659346,0.0031505823,0.0053180754,0.9957951,0.0009779334
2.2023916e-05,8.940697e-08,9.825826e-05,4.5597553e-05,0.03350368,0.0011014044,0.002443105,2.771616e-06,0.003789425,0.9211501
0.9990083,0.0,2.682209e-07,0.0,0.0,0.00042444468,0.00021231174,1.3291836e-05,2.4020672e-05,5.7697296e-05
0.99833405,0.0,4.172325e-07,0.0,0.0,0.00018024445,0.00033897161,3.3587217e-05,1.4305115e-05,0.00016650558
0.0005119741,2.9802322e-08,3.5762787e-07,8.046627e-06,0.0,0.00020003319,0.00091192126,3.5762787e-06,0.9982565,0.0006155968
0.0009417236,0.09055564,0.02474317,1.8060207e-05,4.6998262e-05,0.0013196468,0.009633392,1.4305115e-06,0.0018974245,0.5467133
0.00013020635,2.9802322e-08,1.1593103e-05,1.4007092e-06,0.0,0.00047826767,0.011185437,0.0001718998,0.92477715,0.029493123
1.9967556e-05,0.048586547,0.008448273,0.025689006,0.015494853,0.9999167,0.07833451,0.0002991855,0.40350688,6.210804e-05
7.098913e-05,7.4505806e-07,0.0012348592,1.758337e-06,1.4305115e-06,0.66797495,0.017235577,5.6922436e-06,0.0976699,0.016094774
0.005992025,0.0,2.9802322e-07,1.4007092e-06,2.9802322e-08,0.00023695827,0.00083631277,1.3113022e-06,0.99708104,6.258488e-05
0.88227046,9.596348e-06,0.0023156703,3.2782555e-07,4.7683716e-07,0.00049480796,0.0012975931,0.00019609928,0.00023272634,0.07893759
0.009431481,1.1920929e-07,0.99707496,6.198883e-06,5.364418e-07,9.557605e-05,0.00150913,8.511543e-05,0.0001783669,4.1782856e-05
0.98824006,0.0,2.2351742e-06,2.771616e-06,0.0,0.0022401512,0.0007275045,1.5497208e-06,0.001734823,0.00014147162
0.4633316,0.0,8.6426735e-07,2.1874905e-05,0.0,0.00023537874,0.0004389584,0.00157094,0.23797742,0.009772986
3.33786e-06,0.9946737,0.0008686483,0.0034074485,0.002544254,0.015741527,0.0010510981,5.9604645e-08,0.8756323,0.00021392107
2.604723e-05,0.0,1.3709068e-06,0.99999344,8.940697e-08,0.00020298362,0.00050520897,1.7881393e-06,6.580353e-05,9.536743e-07
1.7285347e-06,0.0033697188,0.4468716,0.18268323,0.013544142,0.0001488924,0.002921164,1.2814999e-06,0.9975586,3.0100346e-06
0.99866533,0.0,1.1026859e-06,5.9604645e-08,2.9802322e-08,0.00013160706,0.00010320544,1.2516975e-06,1.4066696e-05,7.092953e-05
0.0010320246,1.4901161e-07,0.0005195737,1.8179417e-05,3.874302e-07,0.99997544,0.0035538077,1.0281801e-05,0.012056291,4.7773123e-05
0.9965693,0.0,2.0861626e-07,5.066395e-07,0.0,0.00046399236,0.001044035,1.9669533e-05,5.7458878e-05,0.00028973818
7.748604e-07,3.5762787e-07,0.00010377169,1.6897917e-05,3.874302e-07,0.9999659,0.0031246543,1.7553568e-05,0.9723843,7.1525574e-06
2.2053719e-06,1.4692545e-05,5.00679e-05,0.99999946,5.698204e-05,0.0020344555,0.0047490895,5.9604645e-08,0.004543066,6.854534e-07
4.172325e-07,0.9814503,0.0016310811,0.9983748,0.00028133392,0.0056850314,0.0012368262,2.9802322e-08,0.84010094,1.9460917e-05
2.527237e-05,1.2516975e-06,4.8339367e-05,8.076429e-06,4.351139e-06,0.99999994,0.0038103163,5.6028366e-06,0.0077818334,3.2782555e-06
0.00075918436,0.0,5.9604645e-07,1.1920929e-07,0.0,1.0669231e-05,0.00010305643,4.529953e-06,0.9996916,2.3841858e-07
0.0053176284,0.0,1.4901161e-07,0.0,2.9802322e-08,4.8577785e-06,6.747246e-05,4.3809414e-05,0.9767325,0.0008224845
0.041793346,0.0,3.412366e-05,6.28829e-06,0.012035519,0.00017639995,0.00095942616,0.0003785193,0.74924517,0.0003375709
0.0008138716,3.5762787e-07,0.014897078,9.614229e-05,8.314848e-06,3.4451485e-05,0.0020643473,6.5386295e-05,0.99678636,6.2555075e-05
0.9258908,0.0,6.2286854e-06,0.0,0.0,0.0028711557,0.00047200918,0.0007234514,0.0011237264,0.00027233362
0.8458078,1.4901161e-07,1.1891127e-05,2.7418137e-06,1.4901161e-07,0.1005187,0.0041371584,2.527237e-05,0.0006490946,0.0011297464
0.006095618,4.8577785e-06,8.773804e-05,1.7940998e-05,1.0728836e-06,0.0004172027,0.03459251,0.673021,0.03222412,0.08329946
0.9953196,0.0,2.3841858e-07,2.9802322e-08,2.9802322e-08,0.00010091066,0.0002118051,2.592802e-06,0.00010356307,0.001660198
0.00066933036,2.9802322e-08,0.00065267086,1.758337e-06,8.34465e-07,0.00020810962,0.0017729402,4.044175e-05,0.99700236,0.000379771
3.2186508e-06,0.9993743,7.56979e-05,0.029584944,0.000100046396,0.0054379404,0.0007688701,0.0,0.9296472,0.00010290742
0.0,8.34465e-07,0.9902058,0.99995327,0.98613214,0.00017288327,0.002729684,0.0,2.8759241e-05,2.9802322e-08
8.404255e-06,0.99863124,0.00059756637,3.9726496e-05,3.5762787e-06,0.01620549,0.00092974305,1.1920929e-07,0.009297669,0.003839314
0.99391866,0.0,1.1026859e-06,2.0861626e-07,2.9802322e-08,0.000821501,0.000557214,1.4603138e-05,0.0016236901,0.0009586513
0.00073343515,6.2286854e-05,9.021163e-05,6.368756e-05,9.23872e-07,0.00086316466,0.0037522018,2.0563602e-06,0.9907317,0.018404424
0.052008748,0.0,1.3411045e-06,2.9802322e-07,0.0,0.00086173415,0.0008766651,8.940697e-08,0.98139447,0.00046369433
5.5015087e-05,4.053116e-06,2.6524067e-06,3.4570694e-06,3.1083822e-05,0.006871909,0.9967958,5.9604645e-08,0.0025309026,0.007450223
0.00955686,0.0,6.854534e-07,3.5464764e-06,2.0861626e-07,0.00015410781,0.0010686219,6.6012144e-05,0.9941063,3.927946e-05
0.00018632412,1.4901161e-07,0.00044351816,1.4603138e-06,2.4408102e-05,4.670024e-05,0.000772655,6.0796738e-05,0.019575506,0.9506319
0.9968591,0.0,1.7881393e-07,1.3113022e-06,0.0,0.0006573498,0.00075495243,5.6028366e-06,0.00016534328,0.0001603365
0.06575841,8.940697e-08,5.4597855e-05,1.0699034e-05,5.155802e-06,0.00056675076,0.0024531186,4.172325e-07,0.0077278316,0.94192874
0.00038447976,0.0,0.90449715,1.8686056e-05,0.015606374,0.0005311966,0.0032655597,9.983778e-06,0.005835682,0.0002155006
5.9604645e-08,0.000121712685,6.854534e-06,0.9999988,1.0937452e-05,0.0013442338,0.5829534,5.9604645e-08,8.4757805e-05,3.2782555e-07
0.99262106,0.0,3.4570694e-06,1.9669533e-06,0.0,0.0012174547,0.0012399852,9.089708e-06,0.00018236041,0.00029480457
0.7356492,1.1920929e-07,0.00019973516,2.413988e-06,1.7881393e-07,0.00015902519,0.00047773123,0.012146115,0.00030520558,0.23315465
4.172325e-07,0.00035101175,0.0015128851,0.08302021,0.0019773543,0.9999999,0.004294932,3.2186508e-06,0.0053312182,1.3709068e-06
0.002454251,1.3411045e-06,4.3720007e-05,2.8908253e-06,1.1920929e-06,0.00066792965,0.0051715076,5.00679e-06,0.00020036101,0.85077405
2.6524067e-06,0.9943513,0.001608491,0.0015614033,7.4893236e-05,0.95922,0.00019049644,2.413988e-06,0.075784266,6.213784e-05
0.8006356,0.0,1.564622e-05,5.662441e-07,8.404255e-06,0.00014963746,0.00056004524,0.044792235,5.9366226e-05,0.16289881
0.9975331,0.0,2.9802322e-07,2.0861626e-07,0.0,0.00028532743,0.00031521916,1.1593103e-05,6.315112e-05,0.00015121698
0.62926877,0.0,2.9802322e-07,2.026558e-06,1.4901161e-07,9.846687e-05,0.00031477213,2.1725893e-05,0.39649943,0.000846684
0.27094784,6.109476e-06,0.17623606,7.480383e-06,1.1920929e-07,0.0012379289,0.0034657419,0.025180459,0.005771011,0.06971526
6.0528517e-05,1.7881393e-07,0.0,1.7046928e-05,0.0,0.00012296438,0.0017713308,0.0,0.99893165,6.5118074e-05
0.9967516,0.0,7.1525574e-07,1.7881393e-07,2.3841858e-07,0.0001936853,0.00042912364,4.3570995e-05,2.3782253e-05,0.0007440746
0.0009418428,0.0,8.940697e-08,2.9802322e-08,0.0,5.3048134e-06,0.00010740757,1.5199184e-06,0.99945736,4.6491623e-06
0.005529374,0.0,1.9967556e-06,8.940697e-08,2.682209e-07,4.7177076e-05,0.00022292137,6.181002e-05,0.9967279,3.322959e-05
0.00045996904,0.0,2.026558e-06,2.4080276e-05,8.940697e-07,0.00012594461,0.0010730028,6.9737434e-06,0.9995668,1.770258e-05
5.3346157e-06,7.4505806e-07,4.4435263e-05,5.7816505e-06,1.6093254e-06,0.9999995,0.0025235713,7.122755e-06,0.017773896,3.6418438e-05
0.00056791306,6.520748e-05,0.0007483959,3.349781e-05,2.503395e-06,0.0011076331,0.9939239,1.2516975e-06,6.553531e-05,3.4719706e-05
4.827976e-06,0.9995429,6.9618225e-05,0.004197806,1.5199184e-06,0.0058632493,0.00013270974,0.0,0.36908317,0.001162678
0.00080791116,0.78820777,0.001017034,5.6505203e-05,1.5199184e-05,0.0052514374,0.016836882,2.95043e-06,0.0028854609,0.46056756
7.3611736e-06,0.8742569,0.0019642115,3.4958124e-05,5.9604645e-08,0.000523746,0.0042729676,1.4901161e-07,0.9994378,3.376603e-05
0.158099,0.0,1.4901161e-07,0.0,0.0,2.4735928e-06,3.924966e-05,0.95600903,4.0471554e-05,7.8737736e-05
0.0,1.7881393e-07,5.930662e-06,0.999998,0.0029985309,0.000109642744,0.0011204183,8.940697e-08,0.04156986,1.1920929e-07
1.6093254e-06,3.5762787e-07,7.778406e-06,9.834766e-07,5.066395e-07,0.0005529523,0.9705732,1.5109777e-05,0.003425151,0.007587701
0.99669504,0.0,6.854534e-07,2.9802322e-08,0.0,5.00679e-05,0.00023931265,2.771616e-06,0.00011521578,9.1820955e-05
0.99356496,0.0,2.3663044e-05,1.1920929e-07,0.0,0.00066256523,0.0016494691,0.00012677908,3.2186508e-05,6.2674284e-05
6.7055225e-05,0.99135554,0.0009069443,4.991889e-05,1.5974045e-05,0.0029691458,0.0006636381,0.0,0.66132253,0.006004274
0.11405727,0.0,1.4066696e-05,2.0563602e-05,5.9604645e-08,0.00015163422,0.0006133318,0.074442,0.2269077,0.0008519888
