0,1,2,3,4,5,6,7,8,9
0.9933938,0.0,9.23872e-07,9.268522e-06,1.3411045e-06,0.00014713407,0.00016337633,1.013279e-06,0.0003553033,0.0020218194
0.966498,2.9802322e-08,1.66893e-06,3.0696392e-06,4.7683716e-07,0.0024653375,0.00020107627,0.0017813444,1.2725592e-05,0.0004695356
8.404255e-06,1.3113022e-06,0.002118796,0.000108748674,0.38817823,0.99999785,0.00077047944,3.20971e-05,0.0001707375,1.0579824e-05
0.0,1.2665987e-05,1.1920929e-07,0.99997765,2.9802322e-08,0.00043326616,0.98103,0.0,5.7816505e-06,0.0
5.6624413e-06,3.2782555e-07,1.9073486e-06,0.9999876,0.0,0.00070747733,0.00050383806,0.0,0.0002632141,2.0861626e-07
0.99890876,0.0,2.9802322e-08,0.0,8.940697e-08,4.7445297e-05,2.8669834e-05,3.874302e-05,1.7881393e-07,1.3768673e-05
0.0048609674,0.0,1.2814999e-06,9.730458e-05,2.3841858e-07,0.00097346306,0.004467249,0.0,0.97654873,0.00071525574
0.0,0.0,4.4703484e-06,0.9999776,0.99646163,4.285574e-05,6.0915947e-05,0.0,6.28829e-06,0.0
7.778406e-06,6.854534e-07,2.6285648e-05,0.123330206,1.4901161e-06,0.00048175454,0.00039497018,1.1622906e-06,0.99958766,1.692772e-05
0.0001193285,2.9802322e-07,4.529953e-06,3.993511e-06,3.2782555e-07,0.021049887,0.9936838,0.00035887957,0.0022575855,0.0001308322
0.0007467866,2.9802322e-08,0.695388,8.136034e-06,3.4570694e-06,0.00018131733,0.0025990307,1.4364719e-05,0.9934451,1.8179417e-05
0.0027887523,0.0,5.015731e-05,1.7881393e-07,2.9802322e-08,2.4348497e-05,0.00010114908,2.0861626e-07,0.99953103,2.0861626e-07
2.3841858e-07,0.85506356,3.5196543e-05,0.9999509,1.2934208e-05,0.0009095073,0.0044226646,0.0,0.5885594,6.467104e-06
1.8507242e-05,0.9992868,2.670288e-05,0.000120937824,5.349517e-05,0.0009967089,3.170967e-05,5.9604645e-08,0.0041424334,0.009896159
0.16604334,0.0,2.4914742e-05,1.7881393e-07,2.9802322e-08,0.0004298389,0.0005736351,2.8818846e-05,0.88938546,0.00012236834
0.0075099766,0.12299636,8.261204e-05,0.00022405386,0.00011396408,0.0036621392,0.4397264,3.0994415e-06,0.07860693,0.00196895
2.3841858e-07,0.0,5.2154064e-06,0.9999678,3.8325787e-05,0.0008225441,0.0010590851,0.0,0.2486375,2.0861626e-07
0.9994184,0.0,3.2782555e-07,6.2584877e-07,0.0,0.00026774406,6.851554e-05,0.0,5.096197e-06,0.00019904971
0.0,2.0951033e-05,0.9171033,0.0075594485,0.002675891,0.031757087,0.8395545,3.6537647e-05,0.9499837,9.179115e-06
7.748604e-07,1.013279e-06,3.6358833e-06,0.002384156,3.0994415e-06,0.00018534064,0.8229144,0.006714344,0.95140254,0.0011248589
0.99814415,0.0,1.1622906e-06,0.0,0.0,0.00028848648,7.331371e-05,7.748604e-07,6.0796738e-06,3.862381e-05
0.1343523,1.4901161e-07,0.9159895,0.020657241,5.9604645e-07,0.00024223328,0.0011759698,1.0371208e-05,9.2417e-05,9.018183e-05
0.9943721,0.0,5.9604645e-08,5.9604645e-08,0.0,0.00028595328,0.00020128489,6.854534e-07,3.746152e-05,0.00040659308
0.0029948056,4.8577785e-06,0.03737417,0.0009710789,3.874302e-06,0.0005413294,0.0067199767,0.000110566616,0.9869876,0.0050527155
0.002211988,3.5762787e-07,0.00066524744,6.854534e-07,2.0325184e-05,0.0004658997,0.008687198,2.1487474e-05,0.9982519,6.183982e-05
8.970499e-06,0.004248202,0.43406606,0.04184881,0.0010670424,0.99708414,0.023991108,0.0011752844,0.0679844,0.02029252
9.331107e-05,1.9103289e-05,0.00021335483,5.9604645e-08,4.7683716e-07,0.0036213994,0.9263815,0.0006239712,0.0002437532,0.00040531158
0.96055996,0.0,1.66893e-06,0.0,2.9802322e-07,0.00022557378,0.00010848045,0.014894962,1.6063452e-05,0.0008712709
0.0043645203,0.0,1.9431114e-05,2.9802322e-08,0.0,1.2397766e-05,7.6681376e-05,0.9985691,0.0019059181,5.015731e-05
2.9802322e-08,0.9899544,1.6063452e-05,0.6810907,4.5597553e-06,0.0009572506,0.0040531754,0.0,0.99738586,2.065301e-05
0.000672102,7.748604e-07,1.4901161e-07,9.447336e-06,0.0,0.002023071,0.99758416,2.0861626e-07,0.0015667379,7.036328e-05
2.861023e-06,1.66893e-06,6.2286854e-06,6.854534e-07,0.0,0.0060058534,0.99656886,8.34465e-07,0.18444729,1.1175871e-05
0.024354905,3.5762787e-07,1.3411045e-05,1.2814999e-06,1.1920929e-07,0.001051873,0.9915743,5.9604645e-08,3.734231e-05,9.030104e-06
1.2993813e-05,2.3841858e-07,8.672476e-06,0.9997723,7.9363585e-05,0.0001733005,0.00076681376,0.0,2.82228e-05,7.370114e-05
0.96518207,0.0,8.046627e-07,5.9604645e-08,4.172325e-07,0.0005899668,0.00029864907,0.0,0.072936594,1.8894672e-05
0.9997353,0.0,1.7881393e-07,5.9604645e-08,0.0,0.0009326339,0.00032147765,0.0,1.5497208e-06,2.7120113e-06
0.9461142,0.0,3.46303e-05,4.4703484e-07,3.5762787e-07,0.0020970404,0.0011583567,1.4007092e-06,0.036953926,0.0022670925
0.99952424,0.0,1.1920929e-07,1.7881393e-07,2.0861626e-07,0.0002938211,5.8591366e-05,1.1920929e-07,9.4771385e-06,1.5765429e-05
0.9888182,0.0,2.6017427e-05,3.2782555e-06,2.9802322e-07,0.0012059808,0.00020703673,1.2516975e-06,1.4334917e-05,0.003691405
4.2825937e-05,0.0,1.2814999e-05,9.864569e-06,5.2571297e-05,2.0086765e-05,0.00042641163,1.40070915e-05,0.99987864,2.5629997e-06
2.0891428e-05,1.4901161e-07,0.9982036,0.002803892,0.00039759278,0.002145201,0.0053814948,4.172325e-06,0.63248384,1.0073185e-05
0.68222576,0.0,5.364418e-07,8.940697e-07,0.0,0.00017017126,0.00017812848,2.9802322e-08,0.319413,0.0015846491
5.9604645e-08,3.0994415e-06,0.0020394325,1.0728836e-05,3.015995e-05,0.9999994,0.0131985545,1.1622906e-06,0.02263549,5.5730343e-06
1.7881393e-07,0.9995551,3.257394e-05,0.0010251999,0.00019925833,0.0054070055,0.00011840463,2.682209e-07,0.980945,6.3180923e-06
6.815791e-05,1.4901161e-07,1.2367964e-05,2.0980835e-05,1.013279e-06,0.00011795759,0.0012567043,2.8908253e-06,0.9998487,1.50203705e-05
0.0016930997,0.0,4.3809414e-06,1.4901161e-07,0.0,1.3113022e-06,6.753206e-05,0.99978346,0.00011897087,1.1265278e-05
0.1236102,1.1920929e-07,0.0011643767,7.1525574e-07,3.963709e-06,0.00024446845,0.0010372698,4.4703484e-07,0.9340848,0.0017558038
0.12190789,2.2798777e-05,0.00337255,0.0063881874,0.0003221333,0.0024485886,0.017917126,5.415082e-05,0.6786352,0.0066755116
6.467104e-05,0.99845475,0.00035399199,0.00034058094,0.0003682077,0.005737126,0.00012785196,5.155802e-06,0.067991525,0.0018300116
0.9995483,0.0,5.9604645e-08,8.940697e-08,0.0,0.00022429228,3.1143427e-05,0.0,4.1007996e-05,2.8133392e-05
0.004230261,2.3543835e-05,0.003396213,6.7293644e-05,5.90086e-06,0.116563976,0.04269159,3.9845705e-05,0.00042256713,0.017255187
7.212162e-06,0.9994395,1.6093254e-05,2.2768974e-05,4.7683716e-07,0.00244236,0.00043281913,1.7881393e-07,0.001894772,0.00016948581
0.0,2.2053719e-06,0.0001912415,5.632639e-06,4.7683716e-07,0.9999943,0.011281073,3.9041042e-06,0.81096375,3.7550926e-06
0.35661983,1.7881393e-07,3.2484531e-06,2.938509e-05,2.9802322e-08,0.0006072521,0.0009624064,0.00016203523,0.7831974,0.0007184446
0.97088385,0.0,4.4703484e-06,1.1622906e-06,6.556511e-07,0.00027740002,0.0004761517,2.682209e-07,0.0017475784,0.011900872
3.0577183e-05,0.99752086,0.00040712953,0.0011600554,1.4662743e-05,0.005034417,0.00016880035,2.9802322e-08,0.02169472,0.00025713444
0.8590634,2.3841858e-07,1.8566847e-05,4.7683716e-07,0.0,0.00018250942,0.0004143715,1.2904406e-05,0.1422728,0.012489617
1.1980534e-05,0.9996684,0.00016576052,0.0005316138,1.7881393e-06,0.014986873,0.0012896955,4.529953e-06,0.000269413,0.00030902028
0.9861584,0.0,3.606081e-05,4.7683716e-07,3.7550926e-06,0.00085780025,0.00031980872,0.00052061677,0.0036409497,0.00047516823
6.1929226e-05,0.99926496,3.772974e-05,1.0311604e-05,2.0563602e-06,0.0019049048,0.00015214086,0.0,0.02287227,0.0011347532
0.99967766,0.0,6.2584877e-07,2.9802322e-07,0.0,0.00040656328,5.1677227e-05,5.066395e-07,1.2695789e-05,1.5109777e-05
0.0022240877,6.2584877e-07,4.3302774e-05,1.4901161e-06,5.9604645e-08,0.9784074,0.0014735162,9.23872e-07,0.23502457,4.9948692e-05
2.0563602e-06,5.2154064e-06,0.00092718005,0.004485607,0.99706674,0.9999711,0.0017113686,6.735325e-06,0.00022295117,1.0251999e-05
0.0028940737,3.5762787e-07,2.8908253e-06,9.655952e-06,5.9604645e-08,8.997321e-05,0.0028514862,2.9802322e-07,0.01902616,0.9782617
0.034824073,4.8577785e-06,0.00049203634,1.9490719e-05,1.9669533e-06,0.00038909912,0.0036156178,1.7881393e-07,0.8190251,0.12659395
0.9986888,0.0,9.208918e-06,1.1920929e-07,0.0,0.00043651462,0.00022763014,2.0802021e-05,1.0043383e-05,2.5510788e-05
0.99868214,0.0,1.7881393e-07,0.0,0.0,0.0011583865,6.809831e-05,4.643202e-05,7.030368e-05,1.4603138e-06
1.0728836e-06,2.3841858e-07,0.0013709664,1.7523766e-05,0.0013805032,5.7816505e-06,0.00053688884,8.776784e-05,0.9998403,6.991625e-05
9.9509954e-05,6.914139e-06,0.0024375618,0.00030314922,1.4722347e-05,7.086992e-05,0.0008183718,0.5142783,0.52743196,0.015229225
0.0016992092,0.0,6.2584877e-07,0.0,0.0,5.066395e-07,2.0802021e-05,0.99952996,1.847744e-06,1.2218952e-06
0.54670554,0.0,1.4483929e-05,5.2928925e-05,8.940697e-08,0.0012982488,0.00042548776,1.1920929e-07,0.60901004,0.0009750724
0.99759793,0.0,1.9073486e-06,8.940697e-08,9.23872e-07,0.0005515218,0.0001861453,1.4007092e-06,0.00033956766,6.723404e-05
9.447336e-06,6.854534e-07,0.00015118718,0.99996895,8.940697e-08,0.0005145967,0.001050204,1.1920929e-07,2.2649765e-05,4.798174e-06
5.7041645e-05,0.0,1.1473894e-05,0.99997807,2.9802322e-08,9.7721815e-05,0.0004568696,0.0,2.9027462e-05,8.940697e-08
7.4505806e-06,5.9604645e-08,1.4215708e-05,0.9999826,5.9604645e-08,0.00046771765,0.000105917454,0.0,1.9520521e-05,1.1920929e-07
0.00037765503,8.940697e-08,1.5199184e-06,3.5762787e-07,8.6426735e-07,0.00011321902,0.0022922158,5.453825e-06,0.9985405,0.00014841557
0.6732805,0.0,2.169609e-05,5.9604645e-07,5.662441e-07,0.00012525916,0.00025951862,0.57630783,0.00013175607,0.00050747395
0.9876206,0.0,9.715557e-06,2.9802322e-07,2.3841858e-07,0.00027257204,0.0017979145,4.6372414e-05,4.7177076e-05,0.0007044971
0.40640837,0.0,2.2351742e-06,8.940697e-08,0.0,0.00035253167,0.00022995472,0.014298737,0.041099787,1.5258789e-05
0.97945523,0.0,7.0631504e-06,0.06575,3.5762787e-07,0.0009005666,0.00021496415,5.066395e-07,0.00015601516,4.351139e-06
0.9978103,0.0,2.0861626e-07,5.9604645e-08,8.940697e-08,0.0014617443,0.00019904971,5.662441e-07,6.172061e-05,8.133054e-05
0.7748153,0.0,1.2218952e-06,3.5762787e-07,0.56703115,0.0002924204,5.7399273e-05,4.053116e-06,2.2351742e-06,1.8179417e-06
0.99784327,0.0,0.00016227365,2.682209e-07,5.9604645e-08,0.00034037232,0.00086310506,3.874302e-06,3.5345554e-05,5.364418e-06
0.9984251,0.0,9.23872e-07,0.0,1.4901161e-07,0.0010887384,8.803606e-05,6.854534e-07,2.1755695e-05,4.467368e-05
7.909536e-05,1.4901161e-07,0.0025528073,9.536743e-06,0.0044032335,1.6868114e-05,0.0007868707,3.0964613e-05,0.99918926,5.364418e-07
0.98282063,0.0,8.845329e-05,2.3841858e-07,1.3113022e-06,0.00039350986,0.0012316406,0.00020226836,2.1666288e-05,0.0027973354
3.787875e-05,5.9604645e-07,5.272031e-05,1.04010105e-05,1.1920929e-07,0.6729524,0.030767322,1.2516975e-06,0.9616649,1.6391277e-06
9.834766e-07,0.000118911266,0.0110473335,0.019903362,0.006128758,0.089931846,0.024380565,2.6643276e-05,0.046517998,0.11599326
9.23872e-07,1.1920929e-07,1.3113022e-05,0.9999973,2.9802322e-08,0.0005030036,0.0028461814,0.0,0.0007737577,2.9802322e-08
3.2752752e-05,0.99726075,0.000500679,0.116484344,0.06622103,0.0048469603,8.559227e-05,2.3037195e-05,0.05545169,0.0005541742
0.11308256,0.0,6.6161156e-06,1.4305115e-06,0.00022515655,0.00014159083,0.0007198751,1.0818243e-05,0.9475096,0.0003823638
0.97674096,0.0,1.3113022e-06,2.9802322e-08,0.0,0.0036862493,0.00013548136,2.4050474e-05,0.00963226,3.5375357e-05
1.5795231e-06,0.0,0.0,0.0,0.0,2.9802322e-08,4.440546e-06,8.940697e-08,6.2584877e-07,0.9999977
0.051689893,0.0,5.841255e-06,6.854534e-07,0.0,7.364154e-05,0.00011175871,0.9899954,0.0002706051,0.00016632676
1.4901161e-07,6.303191e-05,0.8639615,0.052828163,0.0024522245,0.99999535,0.004491538,5.7965517e-05,0.031731755,8.374453e-06
0.9436834,0.0,1.4901161e-07,5.364418e-07,5.9604645e-08,0.00065997243,0.00031119585,0.0,0.03455186,1.4275312e-05
8.21054e-05,4.142523e-06,0.8288695,1.2069941e-05,6.696582e-05,0.00063091516,0.08255041,2.8014183e-06,0.97540474,0.00021344423
0.9664107,0.0,6.109476e-06,7.748604e-07,1.9967556e-06,0.00013235211,0.00094234943,0.00017932057,0.0001617372,0.0030368567
5.9604645e-08,0.00013202429,1.50203705e-05,0.999995,3.784895e-06,0.011208743,0.84484106,0.0,0.05003953,9.536743e-07
0.0001283586,1.4901161e-07,0.00010955334,1.40964985e-05,3.6358833e-05,6.1005354e-05,0.0012934804,0.0073914826,0.001422584,0.9202039
0.9859817,0.0,0.00022414327,4.529953e-06,5.9604645e-08,0.0010822713,0.00046113133,4.091859e-05,0.00081157684,0.00096717477
0.9919988,0.0,2.2351742e-06,3.5762787e-07,5.9604645e-08,0.0011349022,0.0006224811,8.940697e-08,0.004679382,0.00040134788
2.425909e-05,8.940697e-08,3.0636787e-05,1.257658e-05,0.011001676,8.85129e-06,0.0006119311,4.053116e-06,0.99981093,2.1457672e-06
0.11319706,9.23872e-07,6.0796738e-06,6.2584877e-07,5.51939e-05,5.4597855e-05,0.00038784742,1.9609928e-05,0.23160231,0.34148628
0.9989692,0.0,2.9802322e-08,2.0861626e-07,8.940697e-08,8.267164e-05,3.59118e-05,1.4901161e-06,8.583069e-06,0.00011616945
1.1026859e-06,0.9832864,0.00015074015,0.98843676,0.00017780066,0.00063991547,0.0009883046,5.9604645e-08,0.012709647,0.0038128197
1.3053417e-05,1.1920929e-07,0.0002628863,5.0753355e-05,0.00022614002,0.9999992,0.0014327466,0.0015243888,0.00072589517,2.0772219e-05
8.672476e-06,4.2140484e-05,0.25708908,0.9985961,0.0004028976,0.0010520816,0.008200884,1.4901161e-07,0.24404928,0.00014713407
0.85797906,0.0,4.5895576e-06,6.2584877e-07,1.4901161e-07,0.0006130934,0.00029286742,6.854534e-07,0.084923625,0.01725638
3.2186508e-06,1.4901161e-07,3.516674e-06,0.9999845,5.9604645e-08,0.0007531941,0.00036165118,0.0,0.00023925304,3.5762787e-07
0.99808455,0.0,2.9802322e-07,1.1920929e-07,8.940697e-08,0.000816226,0.00015515089,1.7344952e-05,8.621812e-05,3.874302e-05
2.1457672e-06,0.0,0.00066292286,0.25731397,0.99991405,4.9442053e-05,0.00018119812,8.940697e-08,0.00033155084,7.1525574e-07
5.9604645e-08,0.9900342,2.4527311e-05,0.89892995,2.771616e-06,0.0020307302,0.00089377165,0.0,0.9994838,2.5331974e-06
0.9938719,0.0,1.7881393e-07,1.5199184e-06,5.9604645e-08,0.00027909875,0.00014716387,0.0,0.00052177906,7.8856945e-05
2.3841858e-06,3.159046e-05,0.9967519,0.00043690205,9.6559525e-05,0.0019801557,0.007930815,8.940697e-08,0.98486674,3.1888485e-06
0.9631525,1.7881393e-07,0.0011167526,5.364418e-07,2.3841858e-07,0.0015450716,0.0004787445,3.0100346e-06,0.0016181469,0.01871571
2.3841858e-07,6.136298e-05,3.2782555e-05,0.00024801493,3.2484531e-06,0.9956758,0.23039883,3.874302e-07,0.9739635,4.324317e-05
6.2584877e-07,0.0003081262,0.008070499,0.00030902028,0.004979223,0.99998754,0.0068604946,1.7285347e-06,0.0054956973,1.5169382e-05
4.440546e-06,6.28829e-06,0.00053304434,0.9999729,1.8775463e-06,0.000715971,0.08281973,5.9604645e-08,7.7843666e-05,5.096197e-06
1.3709068e-06,0.0,0.00015985966,2.9802322e-07,1.4901161e-07,2.3841858e-06,0.00019356608,0.9999501,6.607175e-05,3.71933e-05
0.990168,0.0,1.758337e-06,2.9802322e-07,1.6987324e-06,0.00041231513,0.0004618764,1.5497208e-06,0.0016176105,0.00033554435
0.9837258,0.0,6.2584877e-07,1.1920929e-07,0.0,0.0009523332,0.00034698844,6.0260296e-05,0.00025072694,0.0007112622
0.99884343,0.0,2.3543835e-06,2.9802322e-08,2.9802322e-08,0.00052404404,0.00033712387,8.940697e-08,3.3706427e-05,4.5478344e-05
0.14801681,8.940697e-08,7.1525574e-07,1.5199184e-06,0.0,9.858608e-05,5.555153e-05,2.9802322e-07,0.9031285,0.00010883808
0.42165425,4.172325e-07,1.7285347e-06,1.7493963e-05,1.257658e-05,0.0002516508,0.00022473931,2.3841858e-07,0.2850122,0.006345898
1.4007092e-06,0.0,1.1920929e-07,0.0,0.0,0.0,8.702278e-06,8.940697e-08,1.7881393e-06,0.99999976
0.0007516444,5.555153e-05,0.003826052,0.001390487,1.7285347e-06,3.966689e-05,0.003934562,2.0563602e-06,0.06251615,0.973182
2.1457672e-06,0.9540515,3.606081e-05,0.00031760335,1.4901161e-06,0.00085797906,0.0002206564,1.4901161e-07,0.00012642145,0.15596613
0.031518757,0.0,1.7046928e-05,1.0788441e-05,6.7055225e-06,0.00012487173,0.0006609857,3.0100346e-06,0.9805113,0.00016853213
0.9826941,5.9604645e-08,2.9236078e-05,1.1920929e-07,2.3841858e-07,0.00023365021,0.00037765503,6.2584877e-07,0.0060629547,0.0033266544
1.0251999e-05,0.99935806,0.00071814656,0.0010746121,5.671382e-05,0.013988316,0.0031481683,1.552701e-05,0.073847115,0.00021222234
0.003087014,0.0,1.0877848e-05,2.0205975e-05,2.682209e-07,0.000121086836,0.00057178736,8.910894e-06,0.9969585,0.0001924932
0.005367279,3.3080578e-06,1.7732382e-05,1.4007092e-06,4.9471855e-06,0.011000723,0.96949244,0.0001423955,0.0057417154,0.0014570355
0.96495783,0.0,2.9802322e-08,8.940697e-08,0.0,0.00036650896,0.00011521578,0.0,0.16534331,5.6624413e-05
1.7881393e-07,0.99946225,9.602308e-05,0.9176719,1.4394522e-05,0.0022094846,0.00018277764,0.0,0.0015598238,7.95722e-05
8.940697e-08,3.427267e-06,9.1671944e-05,0.9998629,0.00051286817,0.00023981929,0.0017062128,2.0861626e-07,0.0001231134,0.00082054734
0.95102596,0.0,3.7252903e-06,0.0335792,3.0606985e-05,0.0017788708,0.0008585155,5.364418e-07,0.005659431,0.00018641353
0.26454157,3.3974648e-06,2.1964312e-05,1.2218952e-06,2.9802322e-08,0.00025638938,0.0012853742,1.4901161e-07,0.82186794,0.006838113
0.23243484,0.0,0.06827971,2.3543835e-06,1.8268824e-05,0.00012427568,0.00252676,9.23872e-07,0.8679484,3.4421682e-05
1.1473894e-05,0.0,1.5199184e-05,5.9604645e-08,0.0,2.6226044e-05,0.000631392,4.172325e-07,0.9999608,4.3213367e-06
0.11428431,7.748604e-07,6.854534e-07,6.1392784e-06,1.4901161e-07,0.0001758039,0.00045660138,7.778406e-06,0.8997578,0.0028429031
0.9556675,0.0,3.6656857e-05,1.0728836e-06,5.364418e-07,0.0003142357,0.0011437833,0.0008972287,0.0137389,9.602308e-05
0.92488635,8.940697e-08,0.00014305115,8.6426735e-07,5.9604645e-08,0.0021924675,0.0005068481,1.4305115e-06,0.006891072,0.002126664
0.99917567,0.0,1.4901161e-07,1.1920929e-07,0.0,0.0009481609,8.702278e-05,7.748604e-07,4.389882e-05,3.9041042e-05
1.0728836e-06,1.1920929e-07,8.940697e-08,0.99998343,0.0,0.0006559193,0.008397609,0.0,3.516674e-06,0.0
0.3646337,0.0,1.4901161e-07,3.874302e-07,2.9802322e-08,0.00032684207,0.0006516874,2.9802322e-08,0.96182877,2.488494e-05
0.9925049,0.0,6.824732e-06,1.4901161e-07,1.7881393e-07,0.0010257065,0.00022339821,0.0003055632,0.00071668625,7.5638294e-05
0.99803007,0.0,1.4603138e-06,8.940697e-08,0.0,0.0001770258,0.0003169477,8.940697e-08,1.3738871e-05,8.1151724e-05
0.042764187,0.0,0.00013461709,0.0,9.23872e-07,0.00011408329,0.0019193292,9.23872e-07,0.95926476,0.00040853024
0.9935792,0.0,1.0818243e-05,1.1920929e-06,0.0,0.0008314848,0.00010052323,5.9604645e-08,0.0015616715,0.00035649538
0.7775705,1.1920929e-07,6.145239e-05,2.771616e-06,4.917383e-06,0.0010094345,0.00036022067,6.645918e-06,0.29641747,0.004037887
0.0002514124,0.9872947,0.000114798546,8.761883e-06,1.9669533e-06,0.0009420216,0.00076559186,3.874302e-07,0.0005212426,0.009937942
0.0006862879,4.172325e-07,1.2487173e-05,0.0003491938,2.3841858e-07,0.0037379265,0.98014784,0.005775392,5.275011e-05,1.6659498e-05
0.012261897,0.00033345819,0.01011467,0.0005565882,0.00019562244,0.9745761,0.18073243,3.7312508e-05,0.14018127,0.0034243464
0.0017640591,6.2584877e-07,3.620982e-05,0.005189866,1.1920929e-06,0.0004995167,0.0035117865,5.9604645e-08,0.984823,0.00015693903
0.12908971,0.0,1.4007092e-06,2.9802322e-07,0.0,9.119511e-06,5.9515238e-05,1.2814999e-06,1.8388033e-05,0.9885725
4.3213367e-06,0.0,1.3411045e-06,1.1563301e-05,0.0019661486,2.3543835e-06,0.000109285116,0.9633481,0.07442936,1.3709068e-05
7.081032e-05,0.9973602,0.00020381808,0.0002772808,7.271767e-05,0.009112567,0.0020192564,1.1920929e-07,0.11946514,0.0004824698
2.5987625e-05,3.5762787e-07,1.630187e-05,0.99996203,4.4703484e-07,0.00023311377,0.00010430813,0.0,8.884072e-05,2.3841858e-07
0.99963194,0.0,4.1127205e-06,0.0,0.0,0.00067701936,8.8363886e-05,8.940697e-08,5.066395e-07,2.0563602e-06
0.041433096,1.5795231e-06,6.0349703e-05,1.1324883e-06,3.2782555e-07,1.5944242e-05,0.00013062358,0.96493477,6.5505505e-05,0.0012402833
0.0005943179,1.4901161e-07,0.00011062622,2.7120113e-05,8.940697e-08,0.99947727,0.0015466511,3.516674e-06,0.0019744635,1.7106533e-05
0.0017137825,0.0,3.5762787e-07,7.1525574e-07,0.0,2.9802322e-07,6.723404e-05,0.0,1.4901161e-07,0.99998236
5.9604645e-08,0.9995289,6.8843365e-06,0.00047758222,4.5001507e-06,0.002223432,9.530783e-05,0.0,0.99931717,3.874302e-07
0.0,5.543232e-06,0.001231581,0.9998073,0.0019800365,0.00072327256,0.58121085,1.1920929e-07,0.0026291013,3.0100346e-06
0.08461791,1.2218952e-06,0.00027528405,3.2544136e-05,9.328127e-06,0.00026863813,0.0027034879,3.784895e-06,0.9319372,0.002679944
7.033348e-06,4.3541193e-05,5.8174133e-05,3.886223e-05,5.9604645e-08,0.0061211884,0.8512211,1.552701e-05,0.9920659,0.0013383329
0.9394425,0.0,0.0005186796,5.6922436e-06,5.662441e-07,0.0012988448,0.0004799366,2.9802322e-08,0.001960665,0.053444296
0.21784616,0.0,3.090501e-05,1.5199184e-06,2.9802322e-08,0.0012309551,0.00021481514,6.80089e-05,0.81191945,0.0011163354
0.00013911724,0.0,2.682209e-07,5.364418e-07,2.8312206e-06,2.014637e-05,0.00020340085,2.4437904e-05,0.9995047,0.00020635128
0.0009844601,0.00016069412,0.00014352798,0.013903916,0.0015818775,0.09837669,0.9136065,6.636977e-05,0.0057681203,0.0014842451
0.9989705,0.0,1.6391277e-06,1.1920929e-07,2.2947788e-06,0.00083100796,0.00013935566,0.0,5.3852797e-05,0.00015968084
0.99951625,0.0,1.1920929e-07,0.0,0.0,0.0001398921,0.00017136335,8.940697e-08,8.910894e-06,4.8607588e-05
5.969405e-05,0.0,1.2367964e-05,8.940697e-07,7.688999e-06,2.0802021e-05,0.00020432472,1.013279e-06,0.0001859963,0.9994373
0.97404766,8.940697e-08,1.3798475e-05,1.1026859e-05,4.172325e-07,0.004633695,0.04664761,8.910894e-06,1.7881393e-05,0.00018078089
0.0005555749,0.998328,0.00068566203,2.2739172e-05,1.1533499e-05,0.005558938,0.0012543201,7.0631504e-06,0.017865747,0.00048196316
5.9604645e-08,0.0,4.1157007e-05,0.9999028,0.081732124,0.001028806,0.0002655387,0.0,0.0003361106,1.4901161e-07
0.00013777614,0.0,5.9604645e-08,2.115965e-06,8.940697e-08,0.000495106,0.99965274,0.0,7.212162e-06,5.9604645e-08
0.9971967,0.0,2.503395e-06,2.9802322e-08,2.9802322e-08,8.183718e-05,0.00010159612,0.0002501905,6.1392784e-06,1.6957521e-05
1.2814999e-06,5.9604645e-08,0.99867153,7.7188015e-05,8.940697e-08,0.00021335483,0.004176408,0.0,0.9602972,1.6391277e-06
0.0,9.030104e-06,5.2332878e-05,0.00028073788,9.614229e-05,0.9999994,0.0017653108,7.748604e-07,0.030326337,4.8458576e-05
0.99717283,0.0,8.6426735e-07,1.1920929e-07,4.172325e-07,0.00093767047,0.00017264485,4.3213367e-06,0.000546366,0.0008690357
1.2546778e-05,2.3782253e-05,0.0009922981,3.5375357e-05,1.7672777e-05,0.9998852,0.023963213,0.0002501011,0.0008443296,0.0024663806
0.00010338426,0.0,2.3841858e-07,8.940697e-08,0.0,2.592802e-06,8.204579e-05,0.0010338128,0.99974453,5.2154064e-06
0.0,7.3224306e-05,0.00022646785,0.0012103021,2.0861626e-07,0.40346846,0.9513775,1.1026859e-06,0.28397095,7.370114e-05
9.447336e-06,0.9986166,0.00083753467,0.8334574,2.3007393e-05,0.013323218,0.0027956367,2.0861626e-07,0.41062906,0.0005568564
1.3113022e-06,3.1292439e-06,0.00040766597,1.1891127e-05,1.7732382e-05,0.99999976,0.0010964274,1.7881393e-07,0.06733775,1.2516975e-06
0.06626758,2.7686357e-05,5.671382e-05,0.00013005733,1.1265278e-05,0.00041550398,0.0012128949,3.5762787e-07,0.00017493963,0.85820687
0.73022395,8.940697e-08,8.940697e-07,5.662441e-07,0.0,0.0002873838,0.00026276708,0.0,0.32899702,0.0025577843
0.8350549,0.0,2.861023e-06,1.7881393e-07,5.9604645e-08,0.0006560981,0.00025433302,0.0019475818,0.29630443,0.00040596724
2.9802322e-08,3.501773e-05,0.0027836561,0.0063858926,0.0018921793,0.9996085,0.0033887625,4.7534704e-05,0.043700635,0.00283432
1.4305115e-06,1.66893e-05,0.79446405,2.8073788e-05,1.0997057e-05,2.1368265e-05,0.0005875528,3.874302e-07,0.99917245,6.532669e-05
0.0053772926,5.0365925e-06,0.001233995,0.0003860891,0.05261287,0.00012549758,0.0004898608,0.00027036667,0.5835986,0.123752564
2.503395e-06,0.00038850307,7.075071e-05,0.00035580993,5.155802e-06,0.6569238,0.06921744,2.2947788e-06,0.98396945,6.508827e-05
0.9405427,0.0,8.016825e-06,1.2516975e-06,2.4735928e-06,0.0006996691,0.00048607588,0.00041732192,0.009308219,0.0011328161
0.97182816,0.0,2.4020672e-05,3.5762787e-07,2.9802322e-08,0.0002322495,0.00051128864,2.9802322e-08,0.0063993633,0.0034359097
0.00018963218,5.6564808e-05,0.00016230345,5.4091215e-05,5.108118e-05,0.99887276,0.04119444,5.3077936e-05,0.0010281801,0.0032660663
8.380413e-05,0.0,0.9992925,5.9336424e-05,1.7881393e-07,0.00027033687,0.0019016564,2.3841858e-07,0.94745463,2.7120113e-06
3.5762787e-06,0.0014535189,0.20014814,0.00019168854,0.00028422475,0.14988804,0.023968488,8.6426735e-06,0.9420737,0.0008920431
2.9802322e-07,0.000897944,0.001809299,0.6610588,0.0014303625,0.00042819977,0.97478974,6.2584877e-07,0.30476967,0.00069639087
0.0009635389,3.9339066e-06,5.8174133e-05,0.968919,0.99552923,0.00029695034,0.0024050474,1.7881393e-07,0.00015252829,2.1606684e-05
0.0035089254,0.0,0.99962646,0.00063711405,3.2782555e-07,0.001521498,0.004802704,9.23872e-07,5.108118e-05,4.3690205e-05
0.072075546,0.0,5.453825e-06,2.3543835e-06,6.2584877e-07,7.432699e-05,0.00015771389,2.9802322e-07,0.96923125,0.0007340014
4.7683716e-07,0.9288038,0.0058324933,0.99994147,0.00023296475,0.006598532,0.00010681152,0.0,0.0022187233,1.1622906e-06
0.9994222,0.0,7.1525574e-07,4.4703484e-07,0.0,0.0011870563,9.012222e-05,1.1920929e-07,2.6226044e-05,9.804964e-06
0.055349678,7.4505806e-07,3.0100346e-06,2.026558e-06,3.2782555e-07,0.0029488802,0.921702,0.0,0.00066301227,3.656745e-05
0.00011110306,2.9802322e-08,9.834766e-07,1.1026859e-06,0.0019909441,2.259016e-05,0.00036165118,6.377697e-06,0.99976605,1.9967556e-06
3.7252903e-06,8.940697e-08,2.3841858e-07,0.99999315,4.827976e-06,0.00015994906,0.0007353127,0.0,2.4467707e-05,1.4901161e-07
0.9989102,0.0,5.9604645e-08,8.940697e-08,1.3113022e-06,0.00033274293,0.0003466606,7.122755e-06,1.2725592e-05,1.8775463e-06
0.23422211,8.881092e-06,0.000102579594,0.95257527,2.0563602e-06,0.02259916,0.020126104,2.0861626e-07,0.00048819184,6.9111586e-05
0.11920589,0.0,1.1563301e-05,2.9802322e-08,0.04357958,9.739399e-05,0.00012025237,0.00048553944,0.88013434,0.0002309084
9.775162e-06,4.3213367e-06,0.00020432472,8.225441e-06,2.7418137e-06,0.9999958,0.003069967,3.1292439e-06,0.010365218,0.00010892749
0.99836284,2.9802322e-08,2.7477741e-05,4.068017e-05,2.682209e-07,0.0010747313,0.00062677264,0.0,7.5399876e-06,8.752942e-05
0.00035083294,1.7881393e-07,0.014753222,0.99994135,2.682209e-07,0.00016701221,0.00024396181,0.0,1.013279e-06,3.2782555e-07
0.9524258,2.7418137e-06,0.00012722611,2.682209e-07,2.682209e-07,0.00051373243,0.001156956,3.8444996e-06,0.0001527965,0.09485689
2.5629997e-05,0.0,1.41859055e-05,1.7881393e-07,0.0,4.61936e-06,8.7291e-05,0.99997854,6.4879656e-05,3.784895e-06
0.0001078248,3.0398369e-06,4.2915344e-06,5.2154064e-05,4.440546e-06,0.0036790073,0.98820937,1.5735626e-05,0.021707594,0.00042933226
0.00030386448,8.940697e-08,6.943941e-06,8.046627e-07,2.9802322e-07,4.2766333e-05,0.00063958764,1.8179417e-06,0.9997149,3.4570694e-06
0.99911916,0.0,8.34465e-07,0.0,2.0861626e-07,0.000557214,0.00021019578,5.9604645e-08,6.493926e-05,5.096197e-06
0.10935259,2.3841858e-07,0.0010077655,4.4703484e-07,5.9604645e-08,0.00019481778,0.001814127,1.8179417e-06,0.26988703,0.23205346
0.65056556,8.940697e-08,2.0980835e-05,4.7683716e-07,9.23872e-07,0.24743426,0.0021284819,2.9802322e-07,0.0007299483,0.0063791275
8.285046e-06,2.0861626e-07,3.5762787e-06,0.9999888,3.5762787e-07,0.0009806454,0.00037273765,0.0,0.00036168098,2.503395e-06
0.82772624,3.2782555e-07,0.008124292,8.5532665e-06,1.7881393e-06,0.0002502799,0.0013072789,1.5795231e-06,0.034635484,0.018235087
0.00027674437,0.8670863,0.027797967,0.0020605326,9.596348e-06,0.042140484,0.22357896,8.159876e-05,0.06861466,0.02033627
0.99255645,0.0,3.1888485e-06,3.874302e-07,8.940697e-08,0.0012641847,0.00023916364,6.556511e-07,0.0040400326,0.00016465783
0.9840491,0.0,4.6491623e-06,8.940697e-08,6.1690807e-06,0.00095021725,0.0011069477,0.0011906922,0.00065007806,0.00059622526
1.2516975e-06,0.0008119345,6.535649e-05,0.99998033,8.419156e-05,0.028975576,0.30534968,0.0,0.00034210086,3.874302e-07
0.9993028,0.0,8.940697e-08,8.940697e-08,0.0,0.00027313828,5.8591366e-05,0.0,0.00022783875,2.2292137e-05
5.8710575e-06,6.4343214e-05,0.0048713386,3.477931e-05,5.978346e-05,0.9993013,0.28988922,4.413724e-05,0.00091707706,0.00031006336
3.874302e-07,0.9980856,0.00056928396,0.00040495396,2.9981136e-05,0.001331836,0.000312984,2.682209e-07,0.9926454,7.1823597e-06
0.99881315,0.0,4.7683716e-07,3.5762787e-07,0.0,0.00093081594,0.00013715029,0.0,0.00014799833,0.00011470914
0.99635494,0.0,1.1742115e-05,1.9222498e-05,1.1920929e-07,0.0004477799,0.00012248755,5.364418e-07,0.0001988709,0.00011354685
0.01369971,2.3841858e-07,2.1457672e-06,7.1525574e-07,3.3974648e-06,0.0010305941,0.9585396,2.0861626e-07,2.2619963e-05,0.00018185377
0.001039207,0.0,5.90086e-06,2.9802322e-08,0.0,4.827976e-06,0.00022438169,0.999737,5.477667e-05,2.1070242e-05
0.000121980906,5.066395e-07,5.930662e-06,1.3113022e-06,5.9604645e-08,0.9999382,0.008176595,3.5762787e-07,0.004700154,4.3153763e-05
1.13248825e-05,0.9025991,0.00020718575,0.00015202165,3.6358833e-06,0.61735696,0.0007893443,1.4901161e-07,0.38822812,0.0050046146
0.9968926,0.0,2.0861626e-07,8.940697e-08,0.0,0.001280874,0.00027817488,0.0,1.2516975e-05,0.00017148256
6.505847e-05,1.4901161e-07,0.00011867285,0.8456042,8.136034e-06,0.00021311641,0.0030914545,4.5001507e-06,0.9995347,6.2584877e-07
0.9972184,0.0,1.0728836e-06,7.748604e-07,0.0,0.0009773672,0.00021535158,4.5895576e-06,0.00013455749,6.535649e-05
0.00024667382,6.556511e-07,2.9325485e-05,0.9999686,0.0007210374,0.00025889277,0.00096827745,0.0,7.897615e-06,0.0
0.0018247068,4.61936e-06,8.311868e-05,0.00042763352,2.0861626e-07,0.9845071,0.06739503,0.0,0.00022357702,2.5719404e-05
0.99844277,0.0,6.2584877e-07,2.9802322e-08,1.1920929e-07,0.00041213632,5.3703785e-05,1.0460615e-05,5.90086e-06,4.4554472e-05
5.066395e-07,1.8060207e-05,8.3476305e-05,9.23872e-07,2.682209e-07,0.0024745762,0.63373166,3.5762787e-07,0.97591805,0.0003258288
0.8887068,5.9604645e-08,5.337596e-05,2.8014183e-06,3.1888485e-06,0.0019123256,0.00086158514,3.3974648e-05,0.0036514401,0.044780612
0.37673575,0.0,7.7188015e-06,1.1026859e-06,1.5795231e-06,0.00021317601,1.5765429e-05,0.0,1.6093254e-06,0.0009072125
0.9969209,0.0,6.556511e-07,2.0861626e-07,6.2584877e-07,0.00095561147,0.0003798604,0.00012925267,0.00013890862,3.8921833e-05
0.0012631118,0.0,4.7683716e-07,6.2584877e-07,2.0861626e-07,2.4318695e-05,0.00012546778,1.1920929e-07,0.999233,4.1902065e-05
0.28594434,2.9802322e-08,1.8298626e-05,8.136034e-06,4.4703484e-07,0.00011643767,0.0002180934,4.61936e-06,0.90308666,1.9729137e-05
0.00023695827,1.6391277e-06,3.5971403e-05,7.5906515e-05,2.1845102e-05,0.00074756145,0.013478994,0.00015628338,0.034107625,0.8454218
0.5337577,0.0,1.5467405e-05,2.682209e-07,5.066395e-07,0.00038859248,0.00044164062,2.0861626e-07,0.7993628,5.0365925e-05
5.662441e-07,4.172325e-07,2.1636486e-05,0.999998,0.000108242035,0.0005195439,0.005043268,0.0,0.00046998262,0.0
8.478761e-05,7.1525574e-07,8.6039305e-05,5.9604645e-08,1.0728836e-06,0.00014472008,0.004116714,0.001247555,0.9952265,7.9244375e-05
7.390976e-06,1.1622906e-06,0.054495275,0.9999715,7.1525574e-07,0.00034421682,0.0013669133,0.0,0.013405532,0.0
4.2021275e-06,0.0,1.3113022e-06,0.999997,2.9802322e-07,4.759431e-05,0.00044208765,0.0,5.841255e-06,0.0
0.9965364,0.0,9.23872e-07,3.5762787e-07,8.940697e-08,0.0006096661,0.00034049153,6.633997e-05,4.9620867e-05,0.00013881922
0.185018,2.9802322e-08,6.943941e-06,1.7881393e-07,0.0031475127,0.00016671419,0.0001309216,7.075071e-05,0.8152925,0.00027796626
0.0,5.2154064e-06,5.0365925e-06,0.9944278,0.9999235,0.00020483136,0.99240714,0.0,9.387732e-06,2.9802322e-08
0.99892735,0.0,1.0728836e-06,2.9802322e-08,0.0,0.00072336197,5.429983e-05,2.9802322e-08,1.0699034e-05,3.2782555e-07
3.6925077e-05,6.7949295e-06,1.5199184e-06,1.4215708e-05,0.00011858344,2.5779009e-05,0.0010280311,8.6426735e-07,0.9985341,0.0009573102
0.0051110983,5.9604645e-08,0.010540992,0.00073873997,0.00018173456,8.6158514e-05,0.0019003749,4.23193e-06,0.9962275,1.8298626e-05
7.742643e-05,2.0861626e-07,0.0001244247,0.0011274219,1.4901161e-07,0.0006686449,0.0055829585,2.682209e-06,0.9996787,3.5077333e-05
4.553795e-05,0.9937694,0.0004531145,0.00045999885,2.0086765e-05,0.01603049,0.012319177,2.0861626e-06,0.74534214,0.00040778518
0.0005609989,1.6987324e-06,4.759431e-05,0.9988153,0.01376459,0.0003503561,0.0040851533,0.0,9.697676e-05,8.150935e-05
2.0861626e-07,7.748604e-07,0.99842834,0.0001347959,3.3169985e-05,0.9995458,0.010520548,1.7881393e-07,0.0037156641,1.1026859e-06
0.2181085,8.940697e-08,0.00014156103,6.2286854e-06,1.013279e-06,0.84156775,0.009959668,1.2785196e-05,0.00017553568,0.00021672249
1.0728836e-06,7.033348e-06,0.0033800006,6.943941e-06,7.748604e-07,0.99999946,0.0011948943,1.1920929e-07,0.0011547804,7.659197e-06
0.9900146,0.0,5.6624413e-06,4.7683716e-07,1.5199184e-05,0.00029957294,0.00011467934,0.00095734,5.814433e-05,7.274747e-05
0.00045761466,2.9802322e-08,5.632639e-06,1.2844801e-05,0.0,0.00039038062,0.00068095326,2.0861626e-07,0.9997624,3.7252903e-06
8.3595514e-05,3.2782555e-07,5.9604645e-06,4.4703484e-07,0.0,0.00012415648,0.0003349185,3.5762787e-07,0.9999027,7.5399876e-06
0.00051018596,0.0,0.0002182424,7.867813e-06,5.90086e-06,0.00010710955,0.00046303868,0.0005196333,0.9982815,0.00010970235
0.48399332,0.0,1.013279e-06,1.4007092e-06,0.0,0.00047254562,0.00022667646,1.5616417e-05,0.8336874,0.00020870566
0.0013760328,0.0,8.046627e-07,1.013279e-06,1.2218952e-06,1.3500452e-05,0.0002963245,2.9802322e-08,0.9987644,2.0563602e-05
0.00056642294,0.9777772,0.0007184148,4.965067e-05,0.00012239814,0.0033705533,0.01865387,4.440546e-06,0.047297955,0.012338966
4.1127205e-06,1.0073185e-05,0.06388962,0.9998979,0.003235072,0.00071668625,0.002737224,8.940697e-08,0.07082534,7.748604e-07
0.99868065,0.0,1.7285347e-06,8.940697e-08,0.0,0.00047129393,0.00017553568,5.9604645e-07,0.00034445524,5.5462122e-05
0.004124671,5.9604645e-08,6.467104e-06,1.5497208e-06,2.2947788e-06,0.0003068149,0.0006786585,0.00010329485,0.995911,0.0001424253
0.16533676,2.9802322e-08,1.475215e-05,1.9520521e-05,1.2755394e-05,0.00030714273,0.0002899766,3.9339066e-06,0.92135096,5.9604645e-05
1.4305115e-06,0.0034227371,0.005112171,0.00017371774,6.2584877e-07,0.09378618,0.5271701,7.4505806e-07,0.9451108,0.000166893
0.017893493,6.7323446e-05,0.006233573,7.748604e-07,1.1920929e-07,0.0018885732,0.89826846,2.4735928e-06,0.0019731224,0.00077953935
0.046104074,3.2782555e-07,1.8775463e-06,3.5762787e-07,0.0,0.00029709935,0.00011587143,0.0,0.007119298,0.7153903
0.9988976,0.0,1.1920929e-07,0.0,0.0,0.00032120943,4.595518e-05,3.5762787e-07,1.5735626e-05,3.248453e-05
0.9767016,0.0,5.155802e-06,1.4901161e-07,0.0,0.00409019,0.0016407073,7.3075294e-05,0.00068485737,0.000423342
0.9528153,0.0,1.692772e-05,8.940697e-08,2.9802322e-08,0.00030252337,0.00020745397,0.00039982796,0.0029053986,0.0038592815
2.014637e-05,0.0039268434,0.9395977,3.6478043e-05,5.841255e-06,0.025882334,0.16632614,2.2619963e-05,0.0007069409,4.3958426e-05
0.0052184165,1.1920929e-07,0.14491647,2.0563602e-06,1.7881393e-06,0.00016489625,0.0021297336,3.5762787e-06,0.9880899,0.00077071786
0.00036108494,0.0075146854,0.008146435,0.00053724647,5.9604645e-08,0.0007939935,0.001192838,6.854534e-07,0.019677728,0.87083673
0.8796395,0.0,3.2186508e-06,1.5199184e-06,3.120303e-05,0.0006431043,0.0009356141,5.9604645e-08,0.0042217374,2.7358532e-05
0.9365425,0.0,9.23872e-07,2.9802322e-08,1.1920929e-07,0.0002963245,5.7965517e-05,0.0,0.008478224,0.011575609
1.7881393e-07,0.28023127,0.045340896,0.9999968,0.0008749664,0.0048511922,0.009318471,0.0,0.0020303726,0.0
2.95043e-06,0.99972355,0.00012010336,2.8848648e-05,8.34465e-07,0.0015134513,0.00096544623,5.364418e-07,0.8608457,0.00023970008
0.0001604855,0.0,4.3064356e-05,4.3809414e-06,1.7881393e-06,8.612871e-06,0.00046619773,3.5762787e-07,0.99962676,4.5716763e-05
0.9975499,0.0,1.6987324e-06,1.7881393e-07,0.0,0.000852257,0.0012485981,8.940697e-08,9.840727e-05,0.0002476871
0.00027281046,8.940697e-07,9.9509954e-05,0.00080126524,1.3530254e-05,0.00010561943,0.0025185943,6.7055225e-06,0.99879014,4.351139e-05
4.068017e-05,0.0,2.9742718e-05,2.4735928e-06,0.008834392,1.1563301e-05,0.0006221235,0.0070440173,0.998675,3.2782555e-06
0.99696994,0.0,1.2814999e-06,5.9604645e-08,2.9802322e-08,0.00018775463,0.00038158894,4.5597553e-06,0.00077080727,0.00022467971
6.2584877e-07,5.6028366e-06,0.00035709143,0.00029438734,1.8715858e-05,0.99994797,0.016530693,3.3080578e-06,0.6309085,9.161234e-05
1.5795231e-06,0.9725112,0.02120465,0.20454574,0.0019931495,0.97417045,0.009264529,2.682209e-07,0.22207189,3.9368868e-05
0.0071724355,1.1920929e-07,1.2218952e-06,0.95347893,5.9604645e-08,0.000564307,0.00015208125,1.7881393e-07,4.926324e-05,0.0008299351
0.9689734,0.0,5.993247e-05,8.34465e-07,0.0,0.0003913343,0.0010351837,0.00072580576,0.0005533993,0.00014415383
0.2662289,1.1831522e-05,3.2126904e-05,1.758337e-06,7.3611736e-06,3.7431717e-05,0.0027941167,0.3015939,0.0023899376,0.09086147
0.0045306385,6.854534e-07,0.9070749,5.480647e-05,9.655952e-06,0.00043562055,0.0020558834,3.0100346e-06,0.6980481,1.40070915e-05
0.5372417,0.0,1.0728836e-06,1.1920929e-07,1.5497208e-06,0.00012263656,0.00012117624,0.8696875,8.59499e-05,0.002037704
0.9994915,0.0,1.4901161e-07,0.0,1.7881393e-07,0.00018388033,0.00022384524,3.5762787e-07,4.9203634e-05,1.0609627e-05
3.2782555e-07,0.002027899,0.00012561679,0.9930884,2.0861626e-05,0.0045839846,0.9205903,1.1920929e-07,0.51256406,0.00029581785
0.9991566,0.0,2.1487474e-05,2.9802322e-07,2.9802322e-08,0.0012354255,0.00014293194,1.7881393e-07,1.809001e-05,4.479289e-05
0.04457563,0.0,0.000107586384,2.682209e-07,3.3080578e-06,0.00020688772,0.000444144,8.821487e-06,0.97605157,0.00014227629
0.00097066164,1.2457371e-05,2.7418137e-06,1.7881393e-07,5.9604645e-08,0.0017104447,0.9265586,4.7683716e-07,0.10419926,0.0076811314
0.0,1.7881393e-06,0.0002090931,0.99999875,4.1127205e-06,6.747246e-05,0.0067339838,0.0,0.00021517277,4.172325e-07
0.9947325,0.0,4.172325e-06,3.5762787e-07,2.95043e-06,0.0013773441,0.00044593215,3.6656857e-06,0.00016453862,0.00035697222
0.9998354,0.0,1.4901161e-07,5.9604645e-08,0.0,0.00043302774,7.376075e-05,0.0,6.0796738e-06,2.2053719e-06
4.917383e-06,3.4302473e-05,0.00081276894,1.859665e-05,7.480383e-06,0.9999807,0.007683009,5.3346157e-06,0.0006599426,0.0015417635
1.1444092e-05,2.9802322e-08,3.6358833e-06,4.172325e-07,1.1920929e-07,8.034706e-05,0.0010231137,0.00032293797,0.9982736,9.766221e-05
1.2814999e-06,4.798174e-06,1.0728836e-06,6.3598156e-05,5.9604645e-08,0.0003580749,0.9096061,5.4836273e-06,0.99962753,1.9967556e-05
3.7789345e-05,8.940697e-08,4.4703484e-07,2.682209e-07,0.0,5.1766634e-05,0.00060018897,2.771616e-05,0.9995785,8.866191e-05
1.4066696e-05,1.9997358e-05,0.99305415,8.4877014e-05,2.413988e-06,0.0152234435,0.2722485,5.662441e-07,0.06975284,0.0003298819
0.9937891,0.0,5.662441e-07,3.33786e-06,5.9604645e-08,0.0008303821,0.00034707785,5.9604645e-07,0.0010410249,0.00049871206
1.4007092e-06,0.0,1.1920929e-07,0.0,0.0,0.0,8.702278e-06,8.940697e-08,1.7881393e-06,0.99999976
0.0060884356,0.0,2.8967857e-05,1.04010105e-05,0.9994131,1.0430813e-05,0.00011572242,5.9604645e-08,1.937151e-06,1.1622906e-06
0.9644404,5.9604645e-08,2.592802e-06,0.0,0.0,0.0001437664,0.0002925098,0.0,0.00059980154,0.010518789
0.032345235,2.9802322e-07,3.144145e-05,5.0365925e-06,2.9593706e-05,0.0013912618,0.0075276196,1.50203705e-05,0.031814754,0.021066338
0.9990649,0.0,2.5629997e-06,0.0,0.0,0.0011183918,0.00023257732,0.0,0.00023442507,5.543232e-06
7.6144934e-05,0.0,1.3113022e-05,6.556511e-07,5.671382e-05,1.2218952e-06,8.5651875e-05,4.7683716e-07,1.1920929e-07,0.99985886
0.00013804436,2.9802322e-08,2.7805567e-05,3.5762787e-07,6.854534e-07,0.0005288124,0.0023852885,0.00041908026,0.97813046,0.00080242753
0.09122026,2.9802322e-07,0.0004259348,0.0027237236,8.940697e-08,0.0014353693,0.0015414357,1.013279e-06,0.29310098,0.010993987
0.99674183,0.0,1.1920929e-06,1.4901161e-06,2.3841858e-07,0.0013108253,0.0002552569,0.0,0.00021389127,7.6293945e-06
9.119511e-06,1.4901161e-07,3.784895e-06,6.3180923e-06,5.9604645e-08,0.0075024366,0.9995252,6.765127e-06,0.00030124187,5.9992075e-05
2.9802322e-08,6.109476e-06,0.00062412024,0.00035727024,0.00019595027,0.9999999,0.0025188327,5.2452087e-06,0.032729656,0.00017485023
3.6418438e-05,4.7683716e-07,4.261732e-06,0.99990916,3.427267e-05,0.0015805662,0.0034750104,0.0,0.00023645163,1.3709068e-05
0.9795344,0.0,1.7881393e-06,1.1920929e-07,1.013279e-06,0.0031845272,0.00040981174,0.00022819638,0.00011086464,0.00050622225
4.130602e-05,0.0,8.046627e-07,0.9999511,0.0,0.00016823411,0.0007715821,0.0,1.4424324e-05,2.1755695e-06
5.9604645e-08,0.993171,0.0013158321,0.99996877,3.6656857e-05,0.0028839707,0.0007298589,0.0,0.022131264,1.0728836e-06
0.9900218,0.0,3.5762787e-07,0.0,1.4007092e-06,0.00013399124,0.00014999509,0.00023412704,2.1159649e-05,0.00023499131
1.4007092e-06,1.1563301e-05,0.0022540092,0.000392586,0.3880482,0.9999427,0.0040077865,0.00066676736,5.0991774e-05,8.285046e-06
8.34465e-07,8.940697e-08,4.4465065e-05,0.99999857,0.0,7.6532364e-05,0.0007828474,0.0,4.5895576e-06,2.9802322e-08
1.7553568e-05,1.1920929e-07,5.4836273e-06,1.1026859e-06,1.7523766e-05,7.459521e-05,0.00020354986,6.765127e-06,0.9999759,1.3411045e-06
0.006196767,1.7881393e-07,2.9802322e-07,0.99902856,4.172325e-07,0.0001963675,0.0007327795,0.0,0.0006375611,1.8775463e-06
1.4483929e-05,1.847744e-06,7.015467e-05,1.5795231e-06,1.1831522e-05,1.1950731e-05,0.0010190904,9.834766e-07,0.0025453568,0.9977914
4.1127205e-06,0.0,3.874302e-07,0.99998885,0.0,6.3985586e-05,0.00027686357,0.0,2.6226044e-06,2.9802322e-08
0.004241705,1.4126301e-05,1.7613173e-05,1.3709068e-06,1.758337e-06,0.0049304366,0.82259905,0.000282377,0.8043536,6.273389e-05
0.99561834,0.0,1.8835068e-05,6.854534e-07,8.940697e-08,0.0012084246,0.00016319752,3.8444996e-06,0.0001386106,0.0009901524
0.99818146,0.0,2.3841858e-07,5.9604645e-08,1.4901161e-07,0.0004928708,0.00018626451,4.7683716e-07,1.2993813e-05,3.8087368e-05
0.16676861,0.0,0.00033000112,3.4481287e-05,2.682209e-07,0.0001962483,0.002046734,0.082689196,0.14114022,0.00069889426
2.3037195e-05,2.3841858e-07,2.3335218e-05,8.0794096e-05,0.0,0.0006251931,0.98510224,0.08955249,1.5318394e-05,9.894371e-06
2.9802322e-08,9.5665455e-06,1.4901161e-06,0.9999763,1.1742115e-05,0.0005495548,0.0046206117,0.0,0.9674815,1.4901161e-07
0.00014182925,0.022024155,0.0017426014,0.00013518333,4.810095e-05,0.97898054,0.02025327,3.2782555e-07,0.1517748,0.016967744
0.047106206,1.3709068e-06,2.503395e-05,4.6223402e-05,2.2858381e-05,0.0006711483,0.0032568574,1.2814999e-06,0.874087,0.023023874
2.9802322e-07,3.1888485e-05,0.27266622,0.0005116761,1.937151e-06,0.0006081164,0.9561513,2.5629997e-06,0.9877881,2.208352e-05
0.06691417,0.0,5.00679e-06,0.0,8.940697e-07,1.2785196e-05,6.181002e-05,0.9959684,9.840727e-05,1.66893e-06
0.00056260824,3.5762787e-07,0.00027114153,8.7827444e-05,1.859665e-05,8.0645084e-05,0.0012696683,2.4616718e-05,0.9976257,0.00055515766
0.97893417,0.0,0.00017270446,9.930134e-05,6.854534e-07,0.0007826984,0.0003556013,0.006115347,0.0001924634,0.004781395
0.99161863,0.0,4.172325e-07,1.2516975e-06,2.0861626e-07,0.0004324019,0.00018107891,2.9802322e-08,0.008484721,9.88543e-05
0.00052690506,0.0,0.99976254,2.2888184e-05,0.0,0.00037804246,0.002307862,0.0,0.0035097003,8.34465e-07
0.9988293,0.0,5.662441e-07,1.7881393e-07,2.3841858e-07,0.0006284416,0.00027650595,2.0176172e-05,0.00025188923,1.3291836e-05
1.2427568e-05,2.0861626e-07,8.6426735e-07,1.2814999e-06,1.3113022e-06,1.8656254e-05,0.0011537075,6.741285e-05,0.9994495,0.00016009808
0.20183611,1.1920929e-07,5.930662e-06,6.6161156e-06,7.1525574e-07,0.00056147575,0.00028839707,0.00036987662,0.7696855,0.0012418926
0.9615147,0.0,4.61936e-05,4.172325e-07,2.413988e-06,0.00034084916,0.00034430623,0.0,0.00040754676,0.0020423234
0.054053515,8.34465e-07,1.0460615e-05,3.9815903e-05,5.6624413e-05,6.777048e-05,0.0008713007,0.0,0.8847151,0.015581399
0.0057783127,2.3841858e-07,4.8577785e-06,1.9967556e-06,8.6426735e-07,9.906292e-05,0.0003657639,3.5762787e-07,0.9905927,0.0011317432
2.2947788e-06,2.9802322e-08,0.99922657,0.00018626451,1.385808e-05,0.00093761086,0.07258597,1.8179417e-06,0.004124075,0.0014500618
0.00019299984,2.9802322e-08,6.4074993e-06,5.662441e-07,0.009053856,0.00022512674,0.0040337145,4.5001507e-06,0.98388636,1.2516975e-06
0.00013002753,6.7055225e-06,0.00075763464,2.8371811e-05,0.8169342,0.0013279319,0.029190302,0.0003579259,0.045446962,0.018621534
0.10260299,0.0,6.854534e-07,8.6426735e-07,2.9802322e-08,0.0001373589,0.00011155009,5.9604645e-08,0.95950186,0.00048705935
0.0003412962,0.0,2.9802322e-07,2.3841858e-07,2.9802322e-08,1.0430813e-05,9.11355e-05,0.0,0.9997573,1.1146069e-05
0.9992929,0.0,2.3841858e-07,4.172325e-07,2.9802322e-08,0.0004581809,0.0001361072,5.9604645e-08,7.8350306e-05,4.670024e-05
0.0029013157,2.0861626e-07,5.9604645e-07,5.9604645e-08,4.7326088e-05,1.9609928e-05,0.00044107437,3.9696693e-05,0.9842983,5.0485134e-05
0.0,8.940697e-06,0.06970993,6.189942e-05,0.00084501505,0.99998885,0.0034964979,1.13248825e-05,0.9597693,2.3841858e-07
0.8975853,0.0,2.9802322e-07,2.5331974e-06,8.940697e-08,0.0014814138,0.0010730922,3.5762787e-07,0.34493798,0.00010898709
0.9527726,0.0,4.172325e-07,1.6093254e-06,0.0,0.0011208951,0.00011089444,1.9669533e-06,0.090395,2.3275614e-05
0.97589165,0.0,1.8179417e-06,2.0861626e-07,3.2782555e-07,0.0005006194,0.00015228987,1.1920929e-07,0.0010240972,0.00041511655
0.00012129545,0.0,1.1861324e-05,5.0365925e-06,8.940697e-08,0.000103622675,0.0005605817,8.6426735e-07,0.99979675,2.8520823e-05
0.00016534328,0.0,0.9999715,3.129244e-05,5.9604645e-08,0.0004836619,0.0017106235,4.7683716e-07,0.00029724836,5.662441e-07
0.9975351,0.0,2.732873e-05,1.1920929e-07,3.5762787e-07,0.00089007616,0.00010955334,8.940697e-08,2.4497509e-05,0.00015968084
0.97323895,0.0,2.9951334e-05,2.9802322e-07,3.0696392e-06,0.00030839443,6.0647726e-05,2.5629997e-06,0.0013532043,0.0030757487
0.9931725,0.0,8.940697e-08,2.9802322e-08,1.2516975e-06,7.5519085e-05,0.0002078116,0.0007479191,4.5895576e-06,0.00013452768
0.0,0.0046367347,0.51944995,0.0042288005,8.279085e-05,0.9842819,0.011564344,8.940697e-08,0.99836195,1.6391277e-06
0.99332225,0.0,5.272031e-05,6.854534e-07,9.834766e-07,0.0011560619,0.00034853816,7.4207783e-06,0.0015976429,4.3570995e-05
2.9802322e-07,0.9964554,0.00015476346,0.00015544891,1.6391277e-06,0.027159184,0.0018927157,2.9802322e-08,0.9986826,1.9341707e-05
5.6177378e-05,0.9952756,0.0028720796,0.0007804036,0.000849843,0.025820494,0.0016492903,0.00021240115,0.18937379,0.01378569
0.60043544,8.940697e-08,6.2584877e-07,2.1994114e-05,6.2584877e-07,0.0004171133,0.0011141896,1.1920929e-07,0.5890322,3.8087368e-05
2.9802322e-08,2.0861626e-07,0.0005854964,0.99999154,0.38467312,2.7507544e-05,7.033348e-05,0.0,2.989173e-05,0.0
0.9701263,0.0,0.000652194,2.6524067e-06,1.7881393e-07,0.0011736155,0.00030833483,6.2584877e-07,0.014686614,2.631545e-05
0.0015543699,8.940697e-08,4.7951937e-05,3.9041042e-06,2.3841858e-07,0.00033691525,0.0007608533,2.9802322e-07,0.99939954,1.1980534e-05
8.639693e-05,8.225441e-06,1.9967556e-06,1.1622906e-06,1.4901161e-07,0.00080657005,0.99479264,5.5789948e-05,0.0033144653,0.00017094612
9.298325e-06,0.0,1.2218952e-06,0.9999967,0.0,0.00014519691,0.0005669892,0.0,1.886487e-05,2.9802322e-08
9.685755e-06,1.0728836e-06,7.1525574e-07,1.013279e-05,2.0861626e-07,0.0055249035,0.99833786,5.3346157e-05,0.00072574615,0.00011897087
0.9480138,0.0,5.90086e-06,1.5199184e-06,2.9802322e-07,0.00051546097,0.00024303794,3.311038e-05,0.034890473,0.0010384917
0.9363649,5.9604645e-08,0.005384028,2.9206276e-06,4.172325e-07,0.0016018748,0.00029200315,0.014738172,7.4625015e-05,0.00085118413
0.0,8.3863735e-05,0.006901771,0.0017707944,0.0014718771,0.9999951,0.0028456151,0.00029703975,0.00038266182,0.00016662478
1.6778708e-05,2.9802322e-08,2.0861626e-07,2.682209e-07,2.9802322e-08,1.7881393e-06,0.00012814999,4.7683716e-07,0.9998049,6.1690807e-06
4.7683716e-07,2.488494e-05,0.05066496,0.9970505,3.7252903e-06,0.00063982606,0.023186922,0.0,0.9881477,3.2484531e-06
0.3121249,1.1920929e-07,3.874302e-07,5.841255e-06,7.122755e-06,0.00023210049,0.00046020746,1.9967556e-06,0.3601898,0.033705235
1.31726265e-05,0.0073993206,6.0886145e-05,8.1151724e-05,7.4505806e-07,0.0042952895,0.9347252,2.3841858e-07,0.9607072,0.004342824
0.9963974,0.0,3.3587217e-05,0.0,2.9802322e-08,0.00094679,0.0004937053,3.1292439e-06,2.2649765e-06,9.301305e-05
0.9961747,0.0,6.556511e-07,1.3381243e-05,3.874302e-07,0.0006158948,0.000102221966,0.0002771318,7.259846e-05,0.00021111965
1.847744e-06,8.940697e-08,9.23872e-07,0.99998367,2.682209e-07,0.0012150109,0.00023758411,0.0,6.663799e-05,2.3841858e-07
0.99910593,0.0,2.682209e-07,3.2782555e-07,1.1920929e-07,0.0014165342,0.0003633499,6.9737434e-06,2.321601e-05,1.886487e-05
0.008923531,4.7326088e-05,0.00017505884,6.7055225e-06,5.9604645e-08,0.0011714399,0.013210028,2.0861626e-07,0.20807159,0.59876823
0.007963896,0.0,7.212162e-06,6.854534e-07,1.1920929e-07,1.8209219e-05,0.00033140182,0.9937286,0.01698485,4.61936e-05
2.4199486e-05,0.0,1.0430813e-06,2.3633242e-05,3.874302e-07,2.1100044e-05,0.00012996793,2.3841858e-07,0.9999802,9.834766e-07
0.0005171299,2.9802322e-08,1.0728836e-06,0.9999592,3.1590462e-06,0.00083091855,0.00039929152,0.0,0.0001462698,2.0861626e-07
1.6391277e-06,0.9956688,0.0008364022,0.0009614229,0.9847882,0.0071531236,0.0017732382,1.7881393e-07,0.0043219924,2.6106834e-05
9.804964e-06,2.3841858e-07,4.580617e-05,7.033348e-06,3.2782555e-07,2.0712614e-05,0.00088843703,2.682209e-07,7.8082085e-06,0.99995106
9.420514e-05,6.2584877e-07,6.2167645e-05,0.9999689,4.172325e-06,0.00031912327,0.00037956238,0.0,0.00014746189,1.0728836e-06
1.0728836e-06,0.0,3.322959e-05,0.99999726,6.854534e-07,0.00077825785,0.00079253316,0.0,0.00037819147,0.0
0.00015437603,0.0,1.4901161e-06,1.4007092e-06,1.1920929e-07,0.00010511279,0.0004221797,1.1026859e-06,0.9997127,3.7252903e-06
0.86080194,1.1920929e-07,5.5730343e-06,1.1324883e-06,2.682209e-06,0.0018800199,0.0015878975,2.8312206e-06,0.37452486,0.000495255
0.9961349,0.0,1.1026859e-06,2.0861626e-07,0.0,0.0017195344,6.836653e-05,0.00012233853,0.00012344122,0.00010338426
1.0251999e-05,2.2023916e-05,0.0016387105,0.0005541146,1.7851591e-05,0.0007392168,0.96091366,0.021965116,7.131696e-05,0.019365847
0.068769574,3.5762787e-07,2.5451183e-05,3.46303e-05,1.3113022e-06,0.00046020746,0.0011007786,4.261732e-06,0.95895207,0.0018733442
0.9978819,0.0,2.9802322e-08,0.0,2.9802322e-08,0.00012373924,2.1100044e-05,0.0,1.5676022e-05,0.0021996498
0.9941356,0.0,2.6643276e-05,3.3676624e-06,1.1920929e-07,0.00061911345,0.0005264282,5.662441e-07,5.4210424e-05,0.00026637316
2.2351742e-05,1.4901161e-07,0.00051888824,2.4735928e-06,1.3411045e-06,2.5719404e-05,0.00069639087,0.9831966,0.0003529191,0.02274847
0.98274386,0.0,7.06017e-05,2.5331974e-06,8.940697e-08,0.0045270026,0.0005207658,5.3673983e-05,0.0013554394,0.00086301565
0.121530384,0.0,5.5134296e-06,0.0,5.9604645e-08,0.00041642785,6.619096e-05,0.95438194,0.00017103553,4.2021275e-06
1.0430813e-06,0.0,0.9985053,1.3291836e-05,1.2814999e-06,6.312132e-05,0.0016813874,1.4901161e-07,0.9982392,1.7881393e-07
3.6358833e-06,0.0,0.99997795,1.5825033e-05,5.9604645e-08,5.0485134e-05,0.0018730164,4.4703484e-07,0.18917385,2.3841858e-07
0.9985212,0.0,0.0017369688,3.4570694e-06,2.0861626e-07,0.00013375282,0.00015667081,1.7881393e-07,9.387732e-06,5.671382e-05
2.9802322e-08,1.3411045e-06,0.0005322397,1.874566e-05,7.212162e-06,1.0,0.0015784502,5.662441e-07,0.0015229285,3.1292439e-06
0.023085773,2.2053719e-06,0.00024345517,3.8444996e-06,0.0,1.8268824e-05,0.0003337562,6.830692e-05,5.018711e-05,0.9628333
0.99281764,0.0,9.953976e-06,1.1622906e-06,5.364418e-07,0.0034220517,0.000100672245,5.5730343e-05,0.0006573796,0.00014606118
0.00021114945,0.008170098,0.58740574,0.00131464,5.4568052e-05,0.0079342425,0.018575042,1.1920929e-07,0.10470888,0.012491256
2.4437904e-06,2.682209e-07,0.99291563,0.3592847,4.5895576e-06,0.00081574917,0.012350202,0.010324329,0.00015848875,0.00010755658
0.0,0.1312725,2.4050474e-05,0.9999894,0.004480362,0.01874888,0.22670081,0.0,0.0067029595,7.748604e-07
1.7881393e-07,3.0100346e-06,0.0021442175,0.9998294,0.0001630187,7.271767e-05,0.00042301416,0.0,0.07510525,2.413988e-06
3.5762787e-06,0.00017148256,2.3633242e-05,0.0006984472,0.0,0.00012868643,0.0016023517,7.4207783e-06,0.014740139,0.9269819
9.23872e-07,1.4901161e-05,0.95176953,0.9971275,0.0,0.008246273,0.0025760233,8.940697e-08,9.924173e-05,1.1563301e-05
0.99541616,0.0,8.407235e-05,8.940697e-07,0.0,0.0002438426,0.0007034838,1.0728836e-06,1.6331673e-05,5.081296e-05
0.0026508272,0.0,3.993511e-06,1.4901161e-06,0.9983071,4.389882e-05,0.0001526773,5.9604645e-08,0.004335135,7.838011e-06
5.364418e-07,0.783262,1.6272068e-05,0.00013199449,3.1292439e-06,0.0035146177,0.014334708,0.0,0.99897057,1.1116266e-05
0.00105232,5.9604645e-08,3.606081e-06,1.5497208e-06,1.4901161e-07,0.00027900934,0.0003591776,2.9802322e-07,0.99485713,0.0003156364
0.9919762,0.0,1.9043684e-05,9.23872e-07,2.682209e-07,0.0010089278,6.258488e-05,0.0016623437,1.31726265e-05,0.0005544722
0.9723097,0.0,5.3942204e-06,5.4836273e-06,2.9802322e-08,0.00025326014,6.8992376e-05,1.4901161e-07,0.0009447038,0.0038928092
4.7683716e-07,1.0579824e-05,6.2286854e-05,0.9997804,2.1219254e-05,0.0011024177,0.005599767,0.0,0.9956399,2.3841858e-07
0.7470094,2.9802322e-08,7.998943e-05,5.3048134e-06,1.7881393e-07,0.0013610721,0.001342386,4.7683716e-07,0.25284982,0.009761304
3.7819147e-05,0.0,0.9997697,0.4148993,4.7683716e-07,0.002336949,0.0058591366,1.5795231e-06,7.021427e-05,4.7683716e-07
1.1920929e-05,5.9604645e-08,0.9996079,0.014021724,1.1920929e-07,0.0040524304,0.0050691366,1.4901161e-07,0.24012157,0.00022733212
0.97096634,0.0,0.00024107099,5.722046e-06,2.0861626e-07,0.0008033216,0.0001964271,1.4901161e-07,0.011059403,0.0001502335
0.002427727,0.0,8.21352e-05,5.9604645e-08,4.172325e-07,2.938509e-05,0.00025990605,3.6358833e-05,0.99620783,4.0233135e-05
0.29654875,2.0474195e-05,0.85728073,1.6778708e-05,5.662441e-07,0.0059672296,0.024864227,2.0861626e-07,0.0017234087,0.00010249019
1.552701e-05,0.9988122,0.0007022321,0.0016663373,0.00016140938,0.011244208,0.00071677566,7.748604e-07,0.24223748,0.000192523
0.9917918,2.9802322e-08,0.0005646944,1.4603138e-05,1.7881393e-07,0.002048254,0.0004183054,1.7881393e-07,0.0005521178,0.0013427138
0.99873984,0.0,1.4603138e-06,5.9604645e-08,0.0,0.00088599324,0.0008453727,0.0,2.4855137e-05,5.4240227e-06
0.05418238,5.9604645e-08,0.7491131,1.49309635e-05,1.129508e-05,0.00016897917,0.0032311082,9.536743e-07,0.61383355,6.553531e-05
3.874302e-07,2.3841858e-07,9.298325e-06,0.9999951,5.6028366e-06,0.00037708879,0.0008791089,0.0,0.1131255,5.9604645e-08
0.15470842,1.1920929e-07,5.4508448e-05,5.9604645e-08,0.0,0.0006569028,0.00029164553,4.4703484e-06,0.91079056,0.00023412704
0.8371432,0.0,1.7136335e-05,3.5762787e-06,9.536743e-07,0.00043085217,0.0011842549,2.0563602e-05,0.19941244,0.00031346083
2.3573637e-05,0.9884366,0.0014211833,0.005014181,7.1525574e-07,0.040507525,0.006342441,2.9802322e-08,0.6094749,0.005735904
1.7881393e-07,2.9802322e-08,2.1547079e-05,0.9999973,0.0,0.00038215518,0.0049491227,0.0,7.119775e-05,5.9604645e-08
0.9986729,0.0,4.172325e-07,0.0,0.0,0.00013169646,0.00010201335,2.0295382e-05,4.529953e-06,1.4811754e-05
0.99582255,0.0,3.4570694e-06,5.9604645e-08,1.1920929e-07,0.0010222495,0.00041809678,3.5762787e-06,0.00014191866,0.00035652518
0.9977466,0.0,2.2351742e-06,1.4901161e-07,1.4305115e-06,0.00055387616,0.0003681779,1.1920929e-07,1.6897917e-05,8.821487e-06
0.00377962,7.1525574e-07,5.632639e-06,5.8710575e-06,0.0,0.00051662326,0.003524989,3.874302e-06,0.007371187,0.9671465
2.0861626e-07,0.9971558,7.945299e-05,0.0018797815,6.467104e-06,0.0026997924,0.000526309,8.940697e-08,0.99734354,2.8640032e-05
8.34465e-07,0.00020349026,0.0050339997,6.893277e-05,6.955862e-05,0.99999297,0.01705733,1.552701e-05,0.35133097,4.7773123e-05
0.9969264,0.0,6.556511e-07,8.940697e-08,0.0,0.00055095553,0.0001809597,0.0,0.0003837645,8.392334e-05
5.90086e-06,0.00017672777,0.9705541,0.0007291436,0.00022286177,0.009856552,0.422438,3.772974e-05,0.00531587,0.0028315187
0.0035195053,3.0994415e-06,0.00013786554,9.23872e-07,1.5497208e-06,0.00028645992,0.0019082427,4.529953e-06,8.010864e-05,0.988613
3.8444996e-06,0.0,0.0033569038,5.3346157e-06,0.9823619,6.3180923e-06,0.0004886389,8.305907e-05,0.9993149,7.748604e-07
6.7293644e-05,4.3809414e-06,0.00019994378,2.4735928e-06,1.7881393e-06,0.99999845,0.0031960607,1.3709068e-06,0.0029974282,1.5616417e-05
0.9535134,5.9604645e-08,8.910894e-06,1.1712313e-05,3.2782555e-07,0.00048065186,0.00093740225,2.9802322e-08,0.021689653,0.00078478456
0.65236026,6.0498714e-06,9.268522e-06,1.1920929e-07,4.7683716e-07,0.0002707541,0.0016435385,6.020069e-06,0.00012302399,0.758036
2.130866e-05,0.9994918,0.000110417604,6.0886145e-05,2.1904707e-05,0.0050880015,0.0009897351,2.0861626e-07,0.042964607,0.00023892522
0.99791604,0.0,7.748604e-07,1.1920929e-07,5.9604645e-08,0.0008675456,0.0026300848,1.7881393e-07,6.109476e-06,1.66893e-06
0.0025271475,0.0,0.0009058118,1.2516975e-05,1.4603138e-06,5.4001808e-05,0.0005892813,1.1205673e-05,0.9977164,2.7805567e-05
1.013279e-06,1.847744e-06,1.052022e-05,3.951788e-05,4.7683716e-07,0.0005196631,0.9938702,2.6583672e-05,0.2635556,0.0007545352
0.99935883,0.0,5.9604645e-08,0.0,2.3841858e-07,0.0005026758,4.452467e-05,1.3411045e-06,4.2945147e-05,2.0205975e-05
2.2441149e-05,4.5895576e-06,0.0010363758,2.1904707e-05,8.940697e-07,0.99999607,0.0043577254,4.4703484e-07,0.06962311,3.835559e-05
0.3981455,8.6426735e-07,0.91985226,3.7282705e-05,2.0861626e-07,0.0009061694,0.0011357963,0.000495404,6.0796738e-05,0.0031251013
1.1622906e-06,2.9802322e-07,8.076429e-06,0.99999785,1.1920929e-07,0.0009976625,0.0007672906,0.0,0.0007980168,5.9604645e-08
0.21721998,6.2584877e-07,0.006702423,8.612871e-05,2.2053719e-06,0.0002809167,0.0120051205,0.0073994994,0.0024037957,0.6068937
0.8301836,0.0,2.0861626e-07,1.1920929e-07,3.5762787e-07,0.00038290024,0.0002734363,4.3809414e-06,0.6512627,4.014373e-05
0.007105142,1.5199184e-06,3.1888485e-06,4.6133995e-05,2.3633242e-05,0.0014427304,0.97861904,1.4901161e-07,2.5004148e-05,0.00078588724
0.011217713,2.9802322e-08,7.748604e-07,2.0861626e-07,3.2782555e-07,0.00020220876,0.0010739863,2.413988e-06,0.9970622,1.0222197e-05
1.9967556e-06,0.9996057,2.0891428e-05,0.0001373589,6.4969063e-06,0.0012831688,5.5342913e-05,0.0,0.012305945,0.0009382069
0.9970836,0.0,5.662441e-07,4.172325e-07,0.0,0.0015293658,0.00026839972,1.1920929e-07,5.0395727e-05,2.1785498e-05
0.06798807,6.559491e-05,0.00010347366,8.314848e-06,6.2584877e-07,0.00023317337,0.0016271174,1.4007092e-06,0.6642703,0.09724629
0.99291885,0.0,2.9802322e-08,1.7881393e-07,0.0,0.00086790323,0.00031635165,4.053116e-06,0.00074857473,7.995963e-05
0.39868787,8.940697e-08,0.90508556,9.5665455e-06,4.172325e-07,0.0002975762,0.00088712573,1.3113022e-06,3.0994415e-05,0.0003323853
0.907938,0.0,1.4603138e-06,1.0728836e-06,0.23333618,0.00058093667,0.00010100007,1.8775463e-06,1.5616417e-05,0.0016012788
0.9958174,0.0,3.9041042e-06,2.3841858e-07,0.0,0.0001347065,0.00041612983,4.440546e-05,5.7816505e-06,0.00023162365
0.0022088885,7.4207783e-06,0.00022035837,0.00016498566,0.0004810393,0.017408371,0.66249406,4.10676e-05,2.9534101e-05,0.040510476
0.76307726,5.364418e-07,0.68128365,2.8252602e-05,5.9604645e-07,0.00078612566,0.001937598,2.8699636e-05,8.3088875e-05,0.00060388446
0.7577747,0.0,1.12354755e-05,0.0,0.0,8.5532665e-06,0.00016111135,0.0063644648,1.2099743e-05,3.954768e-05
0.0,3.3080578e-06,8.845329e-05,0.00018644333,3.695488e-06,0.9999898,0.0024491549,7.897615e-06,0.98577625,8.34465e-07
4.172325e-07,6.2584877e-07,9.229779e-05,0.99999905,1.3411045e-06,1.9729137e-05,0.0021640062,0.0,3.0696392e-06,0.0
0.01492697,1.1920929e-07,1.6212463e-05,2.6524067e-06,1.7881393e-06,0.0002219975,0.00046250224,5.942583e-05,0.98605776,0.0011487007
0.99618673,0.0,5.4836273e-06,2.9802322e-07,0.0,0.0019798577,0.00013953447,0.0,0.0002579093,0.0002552569
0.0004053414,0.0,0.99765325,0.00056761503,0.0051950216,0.000772506,0.0013827384,2.9802322e-07,5.2392483e-05,9.533763e-05
0.0,6.237626e-05,0.97859025,0.999787,2.6524067e-06,0.0046123564,0.271595,5.9604645e-07,2.3633242e-05,0.0
0.991063,0.0,5.662441e-07,8.940697e-08,5.9604645e-07,0.00034970045,5.2928925e-05,2.9802322e-07,0.0015159249,0.008129299
0.0023606122,5.066395e-07,0.009652346,0.0004400611,3.7163496e-05,3.1232834e-05,0.0014076829,0.010080993,0.96777076,0.00030735135
4.529953e-06,8.940697e-07,5.2452087e-06,1.180172e-05,0.0,0.037960917,0.99894637,5.066395e-07,1.3589859e-05,8.201599e-05
0.00010967255,1.7881393e-07,0.9979572,0.0073026717,1.49309635e-05,0.0008645952,0.0096027255,3.2782555e-07,0.2680645,9.414554e-05
0.0047187805,0.0,2.9534101e-05,5.9604645e-08,5.662441e-07,2.5302172e-05,0.00024211407,5.2452087e-06,0.99783206,9.23872e-07
2.026558e-06,0.945634,0.026244253,0.0017670393,0.05554205,0.89143264,0.023390174,1.4513731e-05,0.02300486,0.0007831454
2.9802322e-08,2.9802322e-07,9.7066164e-05,0.99999416,0.00080797076,0.00013318658,0.0030520558,0.0,1.1920929e-05,5.9604645e-08
5.9604645e-08,0.9980343,0.001431942,0.99995625,4.053116e-05,0.022007227,0.013275534,0.0,0.0016941726,5.066395e-07
0.89910555,0.0,5.5134296e-06,6.8843365e-06,1.1920929e-07,0.0016104281,0.001241833,0.00028765202,0.10314128,0.00021138787
2.002716e-05,2.7060509e-05,0.0066601336,0.0003669262,7.504225e-05,0.99995327,0.0017192662,0.0009786785,0.014161736,3.758073e-05
0.99281496,0.0,1.731515e-05,7.4505806e-07,5.6028366e-06,0.0008443594,0.0007160306,1.4513731e-05,0.0010378957,0.0016695261
6.854534e-07,0.001311779,0.95159984,0.0052437484,0.0019265711,0.99850154,0.00646922,0.0005877316,0.033246964,0.0001232326
0.034523547,5.9604645e-08,3.6358833e-06,3.1888485e-06,2.0861626e-07,0.00056788325,0.0005837977,0.0028998256,0.98480934,1.31726265e-05
0.0,2.0861626e-07,1.0341406e-05,0.9999954,0.01722306,4.0709972e-05,0.002413839,0.0,1.8179417e-06,2.6524067e-06
0.00014615059,8.940697e-08,1.3113022e-06,8.046627e-07,1.4603138e-06,8.1300735e-05,0.00042301416,3.2782555e-07,0.99980617,7.390976e-06
0.9782848,0.0,8.6426735e-07,8.34465e-07,2.7418137e-06,0.00045335293,5.1140785e-05,5.8233738e-05,0.000115692616,0.0037501454
1.7881393e-07,0.0,9.089708e-06,0.99999803,1.2099743e-05,0.00022944808,0.0007175803,0.0,0.0011773705,5.9604645e-08
0.9056351,5.9604645e-08,1.937151e-06,5.6624413e-06,2.9802322e-08,0.00032418966,0.00018915534,0.0,0.080138326,0.0038830638
1.9967556e-06,0.0,2.9802322e-08,0.0,0.0,5.9604645e-08,1.1056662e-05,0.0,2.5629997e-06,0.99999785
0.0,4.8577785e-06,2.2649765e-06,0.99998987,2.8312206e-06,0.00026974082,0.99632967,2.3841858e-07,4.4703484e-06,0.0
0.0,2.3245811e-06,0.0019059181,0.001345545,0.097967416,0.99999994,0.0027525127,2.3156404e-05,0.00026124716,4.2915344e-06
0.9750716,2.9802322e-08,3.0994415e-06,4.3809414e-06,2.8908253e-06,0.024841815,0.013649881,1.1920929e-06,1.0162592e-05,0.00047650933
3.2782555e-07,0.0,8.940697e-08,0.0,0.0,5.364418e-07,1.0997057e-05,5.9604645e-08,6.2286854e-06,0.9999648
0.026025265,8.940697e-08,9.036064e-05,2.6524067e-06,1.12354755e-05,0.0001643002,0.0039792657,1.7791986e-05,0.97840714,5.8859587e-05
0.00043424964,1.1920929e-07,4.172325e-07,4.798174e-06,2.682209e-07,8.0913305e-05,0.0005387664,0.0,0.99927247,8.0645084e-05
0.023535877,0.0,2.9802322e-07,4.172325e-07,0.0,1.8656254e-05,6.726384e-05,5.841255e-06,0.9341936,0.0029668212
0.0014724433,0.0003476143,7.018447e-05,3.874302e-07,2.7120113e-06,0.0074866116,0.8847927,1.8775463e-06,0.00013583899,0.0018028915
0.115170985,0.0,6.425381e-05,1.3440847e-05,1.2844801e-05,0.0011256635,0.004361272,0.4364152,0.013242692,0.0029200912
0.023928225,9.089708e-06,0.72361535,5.096197e-06,2.503395e-06,0.0008471608,0.00014874339,5.5134296e-05,0.00015616417,0.015641153
0.00012397766,0.0,4.4703484e-07,1.5199184e-06,0.0,8.940697e-05,0.0002925694,0.0,0.9997533,7.70092e-05
0.00010070205,0.99744034,0.00018921494,0.00035822392,2.7120113e-06,0.004930228,0.0075322688,4.9471855e-06,0.0010851622,0.0004567504
0.0,0.0005633235,0.0013773441,0.99996156,0.0060191154,0.0005994439,9.23574e-05,0.0,0.05611384,1.758337e-05
0.0006876886,4.8577785e-05,0.00028067827,3.5375357e-05,1.2516975e-06,0.00012585521,0.00014314055,5.364418e-07,0.0024560392,0.9791498
0.043450326,0.0,1.335144e-05,2.9802322e-08,0.0,5.4836273e-06,5.6892633e-05,0.9968518,1.3709068e-05,1.6659498e-05
8.940697e-08,5.9604645e-08,4.7683716e-07,0.9999863,0.00025996566,0.00021135807,0.0004093051,0.0,0.070595145,0.0
0.9689565,2.0861626e-07,8.022785e-05,1.4007092e-06,7.748604e-07,0.00063696504,0.00038850307,3.966689e-05,0.015674263,0.000582695
0.9966959,0.0,9.724498e-05,3.3974648e-06,0.0,0.0025361478,0.00018048286,2.9802322e-08,2.1159649e-05,5.733967e-05
0.9971827,0.0,1.2934208e-05,2.9802322e-07,0.0,0.0016163886,0.0002784133,2.2649765e-06,0.00010120869,0.00022369623
0.98371106,0.0,8.046627e-07,4.7683716e-07,0.0,0.00088763237,0.00037404895,2.682209e-07,0.029671133,0.0017615855
3.2782555e-07,0.00038188696,0.5566492,0.0011486709,0.8974856,0.09921369,0.0304237,6.315112e-05,0.99728477,1.1920929e-06
2.4229288e-05,1.2516975e-06,0.00073218346,1.1980534e-05,0.0003516674,0.99999505,0.005425304,0.00056394935,0.0002284348,5.096197e-06
0.9965742,0.0,5.185604e-06,4.827976e-06,1.8775463e-06,0.0009447634,0.00026857853,1.0728836e-06,0.0005058348,0.00093474984
0.96646667,0.0,6.9737434e-06,2.2649765e-06,1.66893e-06,0.00035643578,0.00012993813,1.3828278e-05,8.353591e-05,0.023136139
0.9994876,0.0,4.172325e-07,8.940697e-08,0.0,0.00036895275,0.00024816394,2.682209e-07,3.1292439e-06,3.054738e-05
1.4007092e-06,0.0,1.1920929e-07,0.0,0.0,0.0,8.702278e-06,8.940697e-08,1.7881393e-06,0.99999976
6.788969e-05,4.3153763e-05,0.4708988,0.00068223476,9.596348e-06,0.0011986196,0.18980348,1.8179417e-06,0.9968337,3.7819147e-05
0.040230066,6.2584877e-07,0.9249569,1.8119812e-05,5.9604645e-08,0.005084008,0.0037069917,4.5597553e-06,0.0007957816,0.005430162
0.08894378,6.0379505e-05,7.7813864e-05,6.467104e-06,3.0994415e-06,0.013870239,0.5776884,1.1920929e-05,0.51403284,0.0013624728
0.0011083186,0.0,3.3318996e-05,3.4868717e-06,0.071059436,0.8540298,0.00019100308,1.1920929e-07,3.33488e-05,4.9471855e-06
0.09832245,5.0365925e-06,0.00011795759,0.00051286817,2.8312206e-06,0.00021100044,0.0008363426,0.067281544,0.044826686,0.051132947
2.6285648e-05,2.9802322e-07,5.3048134e-06,0.99996257,2.1755695e-06,0.0032596588,0.00046363473,0.0,0.0002835989,4.7683716e-07
8.34465e-07,1.1920929e-07,0.026663125,7.778406e-06,0.004755318,5.1498413e-05,0.008980811,0.00038060546,0.9989909,0.00011202693
0.99882895,0.0,3.2782555e-07,2.9802322e-07,0.0,0.00040617585,5.558133e-05,0.0,0.0008740723,6.997585e-05
0.70654315,2.9802322e-08,0.00013107061,2.3335218e-05,2.3841858e-07,0.0008573532,0.0012041032,0.00040861964,0.0072288513,0.0005673468
0.9782911,0.0,2.682209e-07,4.7683716e-07,2.0861626e-07,0.0004017353,0.00031402707,2.9802322e-08,0.005941808,0.00029733777
6.386638e-05,0.0,6.2584877e-07,5.9604645e-08,2.8312206e-06,6.4074993e-06,0.00014534593,1.4901161e-07,0.99994004,9.834766e-07
3.2782555e-07,0.99845016,3.0457973e-05,0.0006328523,3.1769276e-05,0.0008428097,0.00018331409,1.7881393e-07,0.99477243,8.404255e-06
0.99040914,2.3841858e-06,1.7225742e-05,5.3048134e-06,1.9967556e-06,0.0008548796,0.00032150745,2.3841858e-07,7.8201294e-05,0.003260672
0.2597474,1.4901161e-07,0.9597148,6.648898e-05,2.9802322e-08,0.00058835745,0.0016101301,8.940697e-07,0.004240155,0.00033819675
2.3841858e-07,0.0030257106,9.727478e-05,0.9997542,0.00012874603,0.004944533,0.26981062,2.9802322e-08,0.9692451,2.6524067e-06
0.9774952,0.0,4.082918e-06,1.1920929e-07,1.7881393e-07,0.0007195771,0.0001925528,0.0105308,2.3812056e-05,0.00014343858
2.8967857e-05,0.0,0.99985766,0.0048873723,4.7683716e-07,0.0011373162,0.005981356,3.874302e-07,0.05957079,3.2186508e-05
5.0127506e-05,4.580617e-05,0.0041133165,0.00015288591,1.6391277e-06,0.011104256,0.98066384,5.3048134e-06,0.070305854,0.002566278
1.5944242e-05,3.0457973e-05,0.0006725788,5.7578087e-05,1.7881393e-07,6.2555075e-05,0.007852614,3.33786e-06,0.0018075109,0.99876726
0.9987159,0.0,9.23872e-07,8.940697e-08,5.9604645e-08,0.00045722723,0.00040614605,5.9604645e-08,0.0002117753,7.6562166e-05
0.046636105,5.9604645e-08,0.000987947,3.3080578e-06,2.413988e-06,0.9517882,0.0012028813,4.2021275e-06,0.0005981028,5.143881e-05
0.0,0.98222303,3.0398369e-06,0.9999716,4.5895576e-06,0.0007135272,0.0033195317,0.0,0.97932476,0.0
5.364418e-07,2.989173e-05,0.0050247908,0.0004927516,1.2636185e-05,0.99918467,0.37238792,6.645918e-06,0.027234405,6.7442656e-05
1.0728836e-06,0.0,0.9348781,0.0003170073,8.940697e-08,1.847744e-06,0.0011152029,0.9778851,0.000292629,8.431077e-05
1.8298626e-05,1.1920929e-07,2.1666288e-05,1.0728836e-06,1.1622906e-06,0.0004439056,0.0005875528,0.0021256804,0.9863204,0.0025561154
0.00024870038,0.9993609,0.00050252676,3.6358833e-05,8.195639e-06,0.012942612,0.0006259084,8.940697e-08,0.006529361,0.00025323033
4.172325e-07,1.3798475e-05,0.8593165,0.99863017,0.00011256337,0.0019689202,0.0047174096,3.0100346e-06,0.9392595,1.8179417e-06
1.5705824e-05,5.9604645e-08,3.516674e-06,0.00015699863,2.682209e-07,3.156066e-05,9.179115e-05,0.0030104816,0.9938005,0.0051127076
2.9802322e-08,4.5388937e-05,0.00088998675,0.9996574,0.9900868,0.9985182,0.0046405196,8.940697e-08,0.0003042817,9.834766e-07
0.9371324,2.9802322e-08,1.1980534e-05,2.9802322e-08,3.2782555e-07,0.0005492568,0.0002513528,8.869171e-05,5.954504e-05,0.011273652
0.9989167,0.0,1.937151e-06,2.9802322e-07,1.013279e-06,0.00026461482,0.00011339784,0.0,1.6242266e-05,8.46386e-06
2.82228e-05,0.0010454655,0.09048957,0.00034177303,2.1368265e-05,0.99791425,0.020903409,0.00011187792,0.0023826957,0.0018044412
0.056705773,0.0,8.124113e-05,2.9802322e-08,2.9802322e-08,1.4066696e-05,0.0001565516,0.98955506,7.8082085e-06,2.7537346e-05
0.0,1.7881393e-07,0.0001423657,8.314848e-05,1.2516975e-05,1.0,0.0009831786,6.109476e-06,0.029498607,3.2782555e-07
0.00091034174,0.0,0.00018361211,1.66893e-06,5.9604645e-08,0.9988664,0.0011843741,1.1324883e-06,0.0029475093,2.4169683e-05
0.0,2.5629997e-06,0.0018925667,7.596612e-05,9.378791e-05,0.99999994,0.0033982694,5.066395e-07,0.0070565343,2.6226044e-06
2.5570393e-05,1.2218952e-06,0.00035971403,2.9802322e-06,8.940697e-08,0.00010347366,0.0043058395,5.066395e-07,0.006953478,0.99154234
3.1292439e-06,0.0,0.99966097,0.00017011166,9.23872e-07,0.00011527538,0.0047629178,0.0034787953,4.8846006e-05,0.0005932152
2.771616e-06,1.1920929e-07,3.0100346e-06,0.9999798,0.0,0.00018787384,0.00037005544,0.0,1.0251999e-05,5.9604645e-08
0.54339105,3.2782555e-07,5.4836273e-06,7.0035458e-06,4.634261e-05,0.00082689524,0.000795722,9.655952e-06,0.21683529,0.007431209
0.999464,0.0,1.1920929e-07,0.0,2.9802322e-08,0.00028586388,3.7908554e-05,2.0861626e-07,2.8014183e-06,1.6212463e-05
0.009885192,6.735325e-06,0.0010482073,7.382035e-05,0.0020635426,0.99841225,0.0026551485,3.913045e-05,0.027992606,0.00058072805
0.046156794,3.5762787e-07,5.120039e-05,2.7775764e-05,1.859665e-05,0.0011523366,0.8712034,0.00012126565,0.0011079013,0.0006660521
6.7055225e-06,2.0563602e-06,0.9900012,5.7071447e-05,0.0003837049,0.0030375123,0.0031312108,2.2530556e-05,0.007842213,0.00082182884
0.16029519,0.0,3.874302e-05,3.963709e-06,2.0861626e-07,0.93174785,0.0017054975,4.082918e-06,0.00019395351,8.749962e-05
0.9408985,0.0,7.688999e-06,1.1026859e-06,2.682209e-07,0.0006738007,0.00013896823,2.1755695e-06,0.0049945414,0.07595253
0.053219795,1.1265278e-05,0.00038188696,1.9669533e-06,0.0,0.00032824278,0.0009574592,1.3411045e-06,0.00014030933,0.95744544
7.098913e-05,4.082918e-06,0.0012230873,6.097555e-05,0.0001142323,0.9964772,0.004360497,0.000800997,0.1865235,0.0020023286
0.22927105,2.682209e-07,0.0012558401,1.6897917e-05,0.0031273663,0.0002642274,0.004514694,0.711587,0.008392751,0.0022429824
0.017467976,8.940697e-08,0.00014019012,1.4305115e-06,2.4735928e-06,0.9691118,0.0008742511,1.2546778e-05,0.015561134,0.00060772896
0.9989214,0.0,1.5795231e-06,2.8014183e-06,8.940697e-08,0.0014223158,8.037686e-05,2.1368265e-05,3.33786e-06,7.8082085e-06
0.8922159,0.0,2.1755695e-06,0.00013750792,1.1920929e-07,0.0006713867,0.0004478097,4.6491623e-06,0.31911862,0.00028675795
8.651614e-05,7.253885e-05,0.97884667,0.0008254051,1.9103289e-05,0.9871348,0.0101542175,1.4603138e-05,0.00051254034,1.0848045e-05
0.97636616,0.0,0.00027742982,1.8179417e-06,1.4424324e-05,0.0011660457,0.00074982643,1.2069941e-05,0.013631791,0.0007687211
0.0,0.00017020106,3.0994415e-06,0.9999886,0.0067751408,0.0036969483,0.8288716,0.0,0.00080382824,1.758337e-06
0.9485167,0.0,3.784895e-06,1.2516975e-06,2.9802322e-07,0.00040718913,9.718537e-05,0.00012689829,0.000665009,0.034817427
4.9471855e-06,4.172325e-07,1.1026859e-05,0.99994445,5.9604645e-08,0.0008185506,0.00023278594,0.0,0.0003516674,1.3411045e-06
0.9866174,2.9802322e-08,2.0861626e-07,3.2484531e-06,0.0,0.00029194355,7.742643e-05,0.0,0.014386535,0.00010538101
9.018183e-05,1.013279e-06,2.4706125e-05,4.7028065e-05,3.46601e-05,0.0004618168,0.0010383129,6.338954e-05,0.97727144,0.005703777
6.556511e-07,0.0033141077,0.0029887855,0.00012615323,2.0861626e-06,0.9999774,0.041900516,4.5895576e-06,0.0011743903,0.00022429228
0.0,1.2874603e-05,0.00016143918,0.9999938,5.069375e-05,9.146333e-05,0.0027056634,2.3841858e-07,9.179115e-05,2.413988e-06
0.99406946,0.0,6.5863132e-06,4.798174e-06,4.172325e-07,0.00066789985,0.0008659661,0.0,0.0003402233,0.00024607778
4.798174e-06,0.0,6.556511e-07,8.940697e-08,0.0,3.7938356e-05,0.0002014041,2.3841858e-07,0.9999846,4.172325e-07
0.014889002,2.9802322e-08,0.9987695,5.5760145e-05,2.0861626e-07,0.00065517426,0.003305316,2.5331974e-06,0.0006285012,6.1690807e-06
0.002622217,0.9975323,0.00043541193,0.00021213293,1.4841557e-05,0.005113572,0.00081062317,5.9604645e-08,0.00017279387,0.00013434887
0.99864125,0.0,3.874302e-07,5.662441e-07,8.940697e-08,0.00031134486,0.00025624037,7.1525574e-07,9.724498e-05,2.0951033e-05
0.0007059872,3.5762787e-07,1.1622906e-06,1.0728836e-06,2.9802322e-06,4.1902065e-05,0.00075793266,0.0,0.9996332,3.963709e-06
0.84167135,0.0,7.942319e-05,1.3709068e-06,0.00016739964,0.00046890974,0.00034457445,2.849102e-05,0.10800859,0.0025088787
0.0,6.696582e-05,0.9510509,0.61572653,8.076429e-06,0.011207879,0.9014218,8.34465e-07,0.98572016,8.940697e-08
0.0055557787,0.0,1.9073486e-06,1.847744e-06,2.0861626e-07,8.609891e-05,0.00015941262,5.096197e-06,0.9979164,1.2278557e-05
0.9984569,0.0,4.1127205e-06,1.4901161e-07,5.066395e-07,0.00039216876,0.00022137165,2.682209e-07,4.079938e-05,0.00037175417
0.97498393,0.0,2.0861626e-07,0.0,2.0861626e-07,0.00054454803,3.0636787e-05,0.00703758,5.3673983e-05,0.0003091991
0.056889296,2.9802322e-08,2.9802322e-07,2.9802322e-07,2.9802322e-08,0.0035419166,0.6873864,1.3709068e-06,0.00020459294,1.0877848e-05
0.67848605,1.7881393e-07,1.4722347e-05,2.7120113e-06,0.0,0.00076144934,0.00022670627,7.4505806e-07,0.51204807,0.0032365024
0.7940656,8.940697e-08,6.765127e-06,4.172325e-07,1.1920929e-07,0.00036418438,0.00043168664,0.0,0.06052056,0.0033780038
0.00018379092,0.0,0.0,2.0861626e-07,0.0,7.122755e-05,0.00010356307,0.0,0.99983174,1.4424324e-05
0.6425773,1.1920929e-07,2.2232533e-05,1.6987324e-06,3.4421682e-05,0.0007430017,0.05067578,0.011689007,0.00083866715,0.0032345057
2.476573e-05,6.2584877e-07,0.008060724,3.7521124e-05,3.5226345e-05,7.775426e-05,0.005387157,0.000108867884,0.9959594,0.0002194047
0.0,2.9802322e-08,0.00016099215,0.9994273,0.99997896,7.9900026e-05,9.2327595e-05,0.0,0.00021290779,0.0
0.97133183,0.0,2.5629997e-06,3.5762787e-07,1.7881393e-07,0.0013684332,0.0011119843,3.5762787e-07,0.0004632771,0.0032253861
0.9690213,4.172325e-07,0.0029836595,3.296137e-05,1.6391277e-06,0.000251472,0.00047630072,1.6599894e-05,0.008928418,0.0033689737
0.9559389,0.0,2.9593706e-05,0.0,0.0,0.0010733604,0.00036141276,6.9886446e-05,0.017121434,0.00014969707
1.6838312e-05,2.9802322e-08,5.364418e-07,1.1980534e-05,0.0,0.00053569674,0.9982977,1.1920929e-07,0.00028288364,0.00031083822
0.00018700957,8.940697e-08,0.0010953844,6.556511e-07,7.4505806e-06,0.0002682805,0.0009248853,0.9134238,0.0004157722,0.036605477
2.0861626e-07,5.841255e-06,2.8580427e-05,0.99989676,8.821487e-06,0.00068438053,0.0005005002,1.4603138e-06,1.0251999e-05,4.3153763e-05
4.827976e-06,9.834766e-07,1.347065e-05,0.00049602985,4.172325e-07,0.32508802,0.99116045,1.4841557e-05,0.002415061,0.001255244
2.4318695e-05,1.770258e-05,0.05907607,0.00078588724,0.04848057,0.01709336,0.09808245,7.790327e-05,0.95438164,0.0011592507
5.930662e-05,0.0,0.99992186,9.5665455e-06,0.0,0.00038039684,0.0035627484,2.9802322e-08,0.05609882,1.4275312e-05
1.5228987e-05,0.0,6.556511e-07,5.9604645e-08,2.9802322e-08,6.8843365e-06,6.276369e-05,5.9604645e-07,0.9999446,6.2584877e-07
0.99715453,0.0,7.4505806e-06,3.2782555e-07,8.940697e-08,0.0020652115,0.00037300587,1.8298626e-05,0.00018325448,3.9577484e-05
0.98900604,0.0,6.762147e-05,7.1525574e-07,0.0,0.00035598874,0.00072568655,6.467104e-06,2.2381544e-05,0.0011608303
1.3679266e-05,0.0,7.748604e-07,0.9999898,0.0,0.00035879016,0.00021111965,0.0,8.672476e-06,2.9802322e-08
8.910894e-06,2.9802322e-08,1.0579824e-05,0.99998915,1.847744e-06,0.0003529489,0.00014224648,0.0,5.0365925e-06,8.940697e-08
0.016080648,0.0,6.28829e-06,9.655952e-06,4.7683716e-07,0.00011792779,0.001491338,7.1167946e-05,0.9806598,2.5808811e-05
0.99284613,0.0,2.8908253e-06,2.5331974e-06,0.0,0.00019603968,0.0002593994,0.0,0.000130862,0.0013279319
0.99408996,0.0,5.1766634e-05,0.0,0.0,0.0013184547,0.001962304,4.7683716e-07,0.00019192696,6.958842e-05
0.032238305,2.9802322e-08,8.940697e-08,2.771616e-06,7.4505806e-07,0.0037089884,0.5892004,1.4901161e-07,0.00029563904,1.9043684e-05
0.00046798587,8.940697e-07,5.6892633e-05,1.1920929e-05,1.4662743e-05,0.008831084,0.8917595,0.00027564168,0.00068098307,0.00026339293
0.95885277,1.7881393e-07,0.00011271238,0.0005736649,1.1920929e-06,0.0037943423,0.0036562085,8.940697e-06,0.04185787,0.0014351904
0.37664264,0.0,6.505847e-05,1.6182661e-05,1.7881393e-07,0.0035604537,0.1729438,2.0861626e-07,0.0030123293,2.7745962e-05
0.00020828843,2.2053719e-06,0.0001989603,1.2487173e-05,9.5278025e-05,0.00030502677,0.002624154,1.692772e-05,0.8638654,0.030359566
0.9275985,0.0,1.1175871e-05,3.4868717e-06,0.0,0.0002798736,0.00020968914,1.1920929e-07,0.21995375,0.00017806888
2.2649765e-05,8.940697e-08,3.9041042e-06,0.0034448802,2.0384789e-05,6.464124e-05,0.0012365878,4.976988e-06,0.99991655,4.798174e-06
2.9802322e-07,0.99862266,0.00014552474,0.001123637,7.4505806e-07,0.00591594,0.008112401,1.7881393e-07,0.99619246,3.6776066e-05
0.00037252903,2.9802322e-08,7.599592e-06,1.1920929e-06,1.7881393e-07,6.3955784e-05,0.00017476082,4.4107437e-06,0.9976249,0.0016204417
0.0003913939,0.0,0.9999457,4.7683716e-07,0.0,0.00051257014,0.0011298358,2.9802322e-08,0.16122538,7.4505806e-07
2.6196241e-05,0.99697465,4.813075e-05,0.10221371,2.2649765e-06,0.0023055375,0.0001245141,3.8444996e-06,0.0025101602,0.0008774996
0.22792873,0.0,1.847744e-06,5.9604645e-08,0.0,7.382035e-05,7.778406e-05,2.9802322e-07,0.8659953,0.0022783577
5.662441e-07,0.99806297,1.4126301e-05,0.0007452071,0.0,0.019360721,0.0059789717,0.0,0.95837736,0.00046858191
4.0084124e-05,0.9991727,0.00020053983,0.0034388304,9.825826e-05,0.00844124,0.0015617907,4.4703484e-07,0.4157612,0.00010576844
0.0024883747,0.9869106,0.014343351,0.0009993911,7.021427e-05,0.0082708895,0.0013703704,4.1872263e-05,0.0010200739,0.0076904595
8.940697e-08,8.940697e-08,0.00036224723,7.662177e-05,7.9870224e-05,1.0,0.00065770745,2.5331974e-06,0.008778334,6.0796738e-06
8.1032515e-05,0.99304175,0.00030714273,0.00018465519,0.071450084,0.0029150546,0.010492146,0.00064089894,0.00010514259,0.0008225739
1.1503696e-05,0.0,0.99974775,0.00021135807,7.250905e-05,0.0006916821,0.013346136,0.00022053719,0.6930664,1.1026859e-06
0.62959075,3.2782555e-07,1.21593475e-05,1.7881393e-07,1.1920929e-07,5.6952238e-05,0.00034293532,0.00012892485,1.3709068e-05,0.5972791
2.9802322e-08,0.00024810433,0.00030601025,0.96634847,0.10567728,0.9999,0.0044674873,1.9222498e-05,0.0028410554,0.00011000037
0.97543895,0.0,4.172325e-06,1.0728836e-06,0.028634459,0.00025239587,0.0001809597,3.8146973e-06,0.0034850836,0.0003529191
2.9802322e-08,1.9133091e-05,6.765127e-06,0.9999603,8.7082386e-05,0.15508413,0.44965145,0.0,0.06014383,3.7550926e-06
0.25537387,0.0,6.604195e-05,2.682209e-07,2.4735928e-06,9.87947e-05,0.00018167496,0.918772,1.1473894e-05,0.00010368228
0.99123454,5.9604645e-08,2.220273e-05,3.0398369e-06,0.0,0.00084751844,0.0021132529,0.00042816997,0.0013325512,6.210804e-05
0.98241866,0.0,5.8799982e-05,2.0861626e-06,0.0,0.0005877614,0.0008932054,1.1026859e-06,4.3094158e-05,0.00017377734
0.9918915,0.0,1.6391277e-06,8.34465e-07,1.7881393e-07,0.00055989623,0.00029838085,1.4901161e-07,0.00086325407,0.00017490983
1.4007092e-06,0.0,1.1920929e-07,0.0,0.0,0.0,8.702278e-06,8.940697e-08,1.7881393e-06,0.99999976
0.0052141845,5.9604645e-08,4.529953e-06,5.185604e-06,2.8312206e-06,0.0002554059,0.48358995,0.015393615,0.0038872957,4.0590763e-05
0.00023913383,1.2218952e-06,6.7949295e-06,0.00046542287,4.297495e-05,0.00015801191,0.001072079,2.989173e-05,0.9995264,3.632903e-05
0.0,4.23193e-06,7.0631504e-05,0.9996933,0.00046020746,5.4329634e-05,0.009055108,0.0,0.0007670224,0.0009623766
0.008979797,1.1920929e-07,0.002543658,1.3113022e-06,0.0060916245,0.00012177229,0.0017381608,0.002171576,0.68006176,0.019246608
0.0,9.268522e-05,0.0005322397,0.99981767,1.3411045e-06,0.0018079579,0.010208845,2.9802322e-08,0.050595433,1.4901161e-05
7.44164e-05,0.0,2.1755695e-06,1.9073486e-06,8.940697e-08,4.6104193e-05,0.00096687675,6.6161156e-06,0.99868715,2.7090311e-05
0.9939847,0.0,1.1920929e-07,1.1920929e-07,0.0,0.0003837943,7.259846e-05,5.9604645e-08,0.006955564,9.11057e-05
0.12521663,2.9802322e-08,0.001126647,3.7819147e-05,1.7881393e-07,0.003272593,0.18907005,3.170967e-05,0.00029668212,8.08239e-05
0.9850369,0.0,5.722046e-06,1.6182661e-05,1.6987324e-06,0.0008840859,0.00039622188,0.00032144785,0.00016701221,0.0035706162
0.0,0.000733912,0.00059226155,0.9998723,0.9885352,0.9995682,0.09477621,1.2516975e-06,0.0003578663,5.9604645e-08
0.042541414,4.172325e-07,0.0047321916,7.748604e-07,1.4901161e-07,0.00012460351,0.0029634833,0.001572907,0.0011116862,0.85932565
8.34465e-07,8.940697e-08,4.3213367e-06,0.9999864,0.0,0.00029447675,0.00055494905,0.0,5.453825e-06,6.2584877e-07
0.008523226,1.1622906e-06,4.172325e-07,4.172325e-07,2.9802322e-08,0.0131830275,0.9712813,0.0003234744,0.0001271069,2.3275614e-05
0.0035903156,0.0,1.92523e-05,0.0,8.940697e-08,5.6922436e-06,0.00011783838,0.9996272,3.504753e-05,0.00023463368
0.00023630261,3.6120415e-05,3.3974648e-05,0.9998159,0.003003478,0.0011351109,0.0039607584,0.0,0.0050141215,2.771616e-06
5.6177378e-05,0.9985436,0.00016716123,3.054738e-05,1.9073486e-06,0.006220013,0.0008176863,1.013279e-06,0.7144328,0.00020807981
1.7285347e-06,0.0,0.0,4.4703484e-07,0.0,5.364418e-07,4.798174e-06,0.0,2.682209e-07,0.9999989
2.3841858e-06,4.4703484e-07,7.033348e-06,1.013279e-05,0.0,5.3942204e-06,0.00041854382,1.9967556e-06,0.0009984076,0.9996135
0.94740295,0.0,1.0430813e-06,9.23872e-07,0.0,0.0006867051,0.00027641654,2.0861626e-07,0.24385822,4.711747e-05
8.046627e-07,2.95043e-06,0.00013619661,1.8805265e-05,2.3692846e-05,0.9999997,0.0007136762,1.1920929e-07,0.013780445,4.1007996e-05
0.0,0.0,5.1677227e-05,0.99988157,0.9978578,3.1113625e-05,0.00022429228,0.0,8.821487e-06,0.0
0.0006432533,0.0,7.4505806e-07,0.0,0.0,4.7683716e-07,3.9428473e-05,0.9999448,4.529953e-06,3.963709e-06
3.8594007e-05,3.2782555e-07,2.9802322e-07,1.2069941e-05,1.4901161e-07,0.00041154027,0.00039243698,5.9604645e-08,0.99860716,0.00049194694
0.99142003,0.0,1.2814999e-06,3.427267e-06,1.4901161e-06,0.00024393201,0.00031250715,7.688999e-05,1.8119812e-05,0.00015854836
0.22120857,0.0,1.0937452e-05,7.8082085e-06,1.7881393e-07,0.0012431741,5.1796436e-05,0.27747625,0.000620991,0.0018085837
2.4467707e-05,0.0,0.99998444,0.00024598837,1.7881393e-07,0.0017765164,0.0038798153,2.3841858e-07,0.0016860664,1.2218952e-06
2.4944544e-05,1.4901161e-07,1.6450882e-05,6.467104e-06,0.0,8.648634e-05,0.00026255846,6.854534e-07,0.99992764,2.7239323e-05
6.4730644e-05,8.493662e-06,1.0043383e-05,1.23381615e-05,5.066395e-07,0.010160446,0.99654615,7.212162e-06,0.067839384,0.0002129376
0.10675293,0.0,1.770258e-05,1.4901161e-07,6.2584877e-07,0.0012119114,0.0007917881,0.00022825599,0.89766526,0.0004425943
1.4901161e-06,4.6283007e-05,0.00016713142,3.027916e-05,0.00022250414,0.999998,0.0008113384,6.741285e-05,0.0018794835,7.146597e-05
0.97707427,0.0,3.2484531e-06,4.172325e-07,1.4901161e-07,0.0007941723,0.00032907724,0.0012994409,0.0040996075,9.137392e-05
0.9871212,1.4901161e-07,4.9620867e-05,2.3543835e-06,2.9802322e-07,0.00070002675,0.0022883713,0.0011304021,0.00021502376,0.0016233623
0.00015312433,5.6028366e-06,1.1622906e-05,1.7881393e-07,2.7120113e-06,3.85046e-05,0.00038829446,1.8179417e-06,0.9983571,0.0001091063
0.00040522218,5.9604645e-08,4.7683716e-07,6.645918e-06,0.0,0.0026349127,0.99903524,0.0,1.40070915e-05,9.417534e-06
0.9993211,0.0,2.0861626e-07,8.940697e-08,0.0,0.00016960502,0.00030893087,1.4901161e-07,3.8832426e-05,4.285574e-05
7.748604e-07,2.9802322e-08,8.940697e-07,0.99998844,1.4901161e-07,0.00019738078,0.00012481213,0.0,1.6450882e-05,5.9604645e-08
0.00011301041,0.0,2.2053719e-06,0.0,0.0,1.013279e-06,1.2904406e-05,0.99998766,6.4969063e-06,5.9604645e-08
0.0009355545,0.0,2.8014183e-05,7.4505806e-07,4.9471855e-06,0.000109791756,0.0002683103,9.894371e-06,0.99733543,5.00381e-05
0.26156807,1.5795231e-06,6.189942e-05,2.115965e-06,0.0,0.00023597479,0.0014046729,2.3841858e-07,0.80742526,0.011279792
8.940697e-08,0.0,1.4454126e-05,1.7881393e-07,0.0,4.172325e-07,5.143881e-05,0.99999857,2.6911497e-05,1.4901161e-06
1.8417835e-05,9.000301e-06,0.000112622976,3.8981438e-05,8.940697e-07,0.00046345592,0.99818575,2.6524067e-06,0.00045776367,0.00904417
0.07487902,0.0,0.000236094,1.013279e-06,6.854534e-07,0.00026857853,0.00042769313,2.5629997e-06,0.96305764,0.0002784431
1.5795231e-06,0.0,0.0,0.0,0.0,2.9802322e-08,4.440546e-06,8.940697e-08,6.2584877e-07,0.9999977
4.6521425e-05,0.00021782517,0.0027718544,0.004950911,9.715557e-06,0.0013487041,0.022671074,8.940697e-08,0.9718368,0.0033025742
0.04958117,2.4735928e-06,2.3156404e-05,6.645918e-06,4.172325e-07,0.0006388724,0.0036523938,1.603365e-05,0.8702496,0.015880346
1.001358e-05,5.364418e-07,9.3609095e-05,8.8870525e-05,2.6762486e-05,0.9999991,0.0010226667,7.4476004e-05,0.0011601448,2.2053719e-06
0.99950904,0.0,7.4505806e-07,1.1920929e-07,0.0,0.0009340942,0.0001757145,0.0,7.164478e-05,3.2275915e-05
0.99754786,0.0,2.026558e-06,7.748604e-07,0.0,0.0008018315,0.00023713708,1.847744e-06,0.00055617094,4.9710274e-05
0.8072519,0.0,2.9206276e-06,3.2782555e-07,2.9802322e-08,0.00044101477,0.00016263127,0.006362796,0.008906722,0.00483647
0.99288005,5.9604645e-08,0.0001489222,3.2782555e-07,1.3411045e-06,0.0009281039,0.0021867156,1.6987324e-06,1.1771917e-05,2.193451e-05
0.0003245473,0.0,3.1888485e-06,1.9073486e-06,4.172325e-07,4.172325e-05,0.00033810735,6.508827e-05,0.9993457,5.5134296e-06
0.99456465,0.0,2.95043e-06,8.046627e-07,7.1525574e-07,0.0009751022,0.0014090538,2.6226044e-06,8.067489e-05,0.0016726553
5.0842762e-05,1.2516975e-05,0.0003209412,0.0033971667,0.0029584765,0.9999963,0.0037976503,0.0002387762,0.010741144,3.3915043e-05
0.32320988,5.9604645e-08,2.3841858e-07,4.7385693e-06,2.9802322e-08,0.00021073222,0.0006020665,2.9802322e-08,0.8669695,9.176135e-05
0.10142365,0.0,1.0937452e-05,0.0,2.9802322e-08,0.0001334846,0.0002603531,0.979416,1.8268824e-05,0.0010228455
0.0027346313,0.9808421,0.0004760027,7.981062e-05,2.0056963e-05,0.00509879,0.00036495924,1.7285347e-06,0.0014464557,0.00028288364
7.6293945e-06,0.9972441,4.9740076e-05,0.00059849024,3.784895e-06,0.0035890639,9.906292e-05,0.00014984608,0.0072351396,0.01071021
0.99860394,0.0,4.172325e-07,3.2782555e-07,1.7881393e-07,0.00030064583,8.612871e-05,1.2814999e-06,3.7252903e-06,0.00012341142
3.0398369e-05,1.7881393e-06,0.00023308396,0.0035176277,0.0008495748,0.99987435,0.0008251369,3.1590462e-06,0.08843824,0.000101953745
0.99855864,0.0,4.4703484e-07,2.9802322e-08,0.0,0.0013636947,0.00012758374,5.9604645e-08,6.92904e-05,1.9609928e-05
1.0937452e-05,8.34465e-07,9.959936e-05,0.9999091,0.6888237,0.00030052662,0.0005608797,2.9802322e-08,0.06271818,1.4901161e-07
0.0004898608,1.4901161e-07,0.00013461709,4.4882298e-05,2.3126602e-05,9.596348e-06,0.0014683604,3.427267e-06,0.9989172,0.00012302399
0.93124294,0.0,4.172325e-07,0.0,0.0,3.1143427e-05,0.00023043156,0.042253137,2.5331974e-05,0.0005810857
0.03806305,1.1920929e-07,7.122755e-06,2.3543835e-06,2.682209e-06,0.00047180057,0.0005648434,0.0003707111,0.9658408,0.000777632
0.9995927,0.0,5.364418e-07,8.940697e-08,1.7881393e-07,0.00079521537,5.3167343e-05,2.9802322e-08,6.0796738e-06,1.1503696e-05
0.0013720095,1.4901161e-07,0.00043815374,0.0007264018,2.3841858e-06,4.389882e-05,0.0005694628,5.9247017e-05,0.9924935,0.00010922551
1.5795231e-06,6.2584877e-07,2.142787e-05,0.9999788,1.1920929e-07,0.00019395351,0.0003376305,0.0,0.014103323,1.4901161e-07
0.9944402,0.0,1.5199184e-06,7.1525574e-07,0.0,0.002975881,0.00040057302,2.9802322e-07,7.870793e-05,0.00095543265
0.03285417,5.9604645e-08,4.172325e-07,2.95043e-06,2.9802322e-07,4.711747e-05,0.000110685825,2.9802322e-08,0.9833132,0.0003117323
7.748604e-07,1.1920929e-07,0.00017482042,1.6093254e-06,0.0,0.9999999,0.002867937,3.874302e-07,0.00075900555,8.046627e-07
0.82291096,2.9802322e-08,1.1622906e-06,6.2584877e-07,3.2186508e-06,0.00034996867,0.000849247,1.7881393e-07,0.18720156,8.261204e-05
0.0017521083,5.9604645e-08,2.0861626e-07,8.523464e-06,0.0,4.220009e-05,0.0003094375,0.0,0.994731,0.0008442402
2.6524067e-06,2.3841858e-07,0.00022280216,0.99999464,0.0,0.00024208426,0.0005135238,0.0,4.503131e-05,2.9802322e-08
0.9580319,0.0,2.0861626e-07,0.0,2.3841858e-07,0.00028172135,0.0003527403,0.0062299967,0.00031235814,6.28531e-05
1.1920929e-07,8.204579e-05,7.6919794e-05,0.99997675,0.0002335906,0.0027653575,0.064991236,0.0,0.00010359287,1.2457371e-05
5.9604645e-07,5.9604645e-08,7.200241e-05,0.9999923,1.707673e-05,0.0004580915,0.00038975477,0.0,0.0077454746,2.9802322e-08
4.1127205e-06,2.9802322e-08,6.1690807e-06,2.682209e-07,4.172325e-07,7.537007e-05,0.84744644,0.9461466,0.00016954541,0.00014954805
0.00011307001,5.9604645e-08,3.3080578e-06,7.1525574e-07,2.9802322e-08,4.9591064e-05,0.00050002337,4.172325e-07,0.0009506643,0.9874574
3.874302e-07,0.0,8.493662e-06,0.99995863,0.00022470951,9.23872e-05,9.384751e-05,0.0,0.0035916567,5.9604645e-07
0.21499184,1.1920929e-07,3.6358833e-06,5.4836273e-06,1.013279e-06,0.00035715103,0.00041005015,4.4703484e-07,0.8969267,0.0007301569
4.4703484e-07,0.9976046,0.00029054284,0.5335023,5.9604645e-06,0.007981777,0.0025119483,2.9802322e-08,0.98927575,5.364418e-06
1.04010105e-05,1.7762184e-05,1.8835068e-05,0.99998474,0.000101566315,0.001889646,0.0027338862,0.0,0.00019195676,3.784895e-06
0.0023784637,5.9604645e-08,0.0,0.0,0.0,2.6226044e-06,9.897351e-05,1.5199184e-06,0.0021246672,0.99413776
2.9802322e-08,8.34465e-07,4.324317e-05,0.9999304,0.00021955371,0.00027555227,0.00025567412,3.5762787e-07,3.0696392e-06,1.7493963e-05
1.3589859e-05,5.0395727e-05,7.748604e-07,3.2782555e-06,0.0,0.010242403,0.98851633,6.854534e-07,0.9192711,0.00029593706
8.633733e-05,0.0,0.9998342,4.23491e-05,9.536743e-07,0.00027933717,0.004306078,1.1920929e-07,0.015491724,5.0216913e-05
0.9567626,0.0,3.1292439e-06,1.1920929e-07,0.0,0.0010231435,9.095669e-05,0.0007921457,7.107854e-05,0.01211834
0.88702583,4.172325e-07,2.8312206e-06,5.7816505e-06,0.0,0.0005016625,0.00097188354,1.9669533e-06,0.19171402,0.005099863
0.00012511015,4.7683716e-07,0.00044861436,0.0004954636,1.5497208e-05,0.99906987,0.0008607507,0.0006324053,0.00020101666,9.253621e-05
3.0994415e-06,0.0,2.9802322e-07,0.0,0.0,3.5762787e-07,1.9431114e-05,1.1920929e-07,4.2021275e-06,0.99999917
0.99958146,0.0,3.5762787e-07,4.172325e-07,8.940697e-08,0.0006314218,9.161234e-05,8.046627e-07,2.977252e-05,2.4437904e-06
4.914403e-05,2.0861626e-07,1.1950731e-05,2.503395e-06,0.0,0.00010544062,0.00052317977,1.4901161e-07,0.9999157,5.376339e-05
0.9175159,2.9802322e-08,0.00017336011,1.2516975e-06,6.854534e-07,0.00010725856,9.819865e-05,2.3841858e-07,0.00038051605,0.028269202
0.97879434,0.0,1.937151e-06,1.4901161e-07,0.0,0.0010370612,0.00010636449,1.7881393e-06,0.01832655,0.00022500753
0.0007107556,4.172325e-07,3.3080578e-06,2.115965e-06,8.6426735e-07,0.0041153133,0.99877906,6.4969063e-06,0.0026932657,4.9114227e-05
0.54412603,0.0,0.8144443,5.364418e-07,6.556511e-06,0.00023695827,0.00096204877,3.8415194e-05,0.00059741735,0.00022622943
0.98416924,2.9802322e-08,0.00013759732,2.9802322e-07,0.00019598007,0.0010872483,0.0003708005,0.0005750656,3.734231e-05,0.001889348
1.6331673e-05,3.5762787e-07,2.2053719e-06,1.04010105e-05,9.208918e-06,1.4543533e-05,0.0008494556,2.9802322e-08,5.298853e-05,0.9962914
2.8312206e-06,0.99790275,0.00029450655,0.0007439852,1.6361475e-05,0.006178528,0.00073227286,0.0,0.5369471,0.0053325593
0.98426175,8.940697e-08,2.065301e-05,1.758337e-06,3.5762787e-07,0.00047183037,0.0003580153,2.682209e-07,0.00015950203,0.008217126
4.61936e-06,7.390976e-06,0.000117093325,0.99995434,0.0010862052,0.0014454424,0.0012585521,0.0,0.08037084,5.662441e-07
0.07434577,8.940697e-08,0.9835642,3.3706427e-05,1.847744e-06,0.00020328164,0.0011245012,3.3169985e-05,0.003717959,0.00016227365
0.069078356,0.0,4.082918e-06,2.3841858e-07,5.9604645e-08,0.00023463368,0.00017979741,1.4305115e-05,0.8235208,0.0021515787
2.3841858e-07,0.00014182925,0.63991606,0.9714782,6.6161156e-06,0.0007790327,0.00832814,2.3841858e-07,0.9969506,7.748604e-07
0.6942688,0.0,0.000677228,4.3720007e-05,5.364418e-07,0.0005877912,0.00094500184,0.087337494,0.00012040138,0.00024357438
0.00070124865,0.0,0.89624184,1.3411045e-06,1.7881393e-07,0.0001514554,0.0018886328,1.66893e-06,0.95474845,4.917383e-06
0.97042656,0.0,2.2470951e-05,7.4505806e-07,4.258752e-05,0.00038215518,0.00013196468,1.4901161e-07,0.00068330765,0.00037309527
0.0,9.536743e-06,1.3649464e-05,0.99878454,1.3709068e-06,0.00069239736,0.008499533,1.7881393e-07,0.91993845,8.818507e-05
1.591444e-05,2.682209e-07,2.7537346e-05,0.9999892,2.9802322e-08,7.805228e-05,0.00058218837,0.0,5.066395e-07,1.1920929e-07
4.8547983e-05,5.9604645e-08,0.0006506741,0.00039470196,2.9802322e-08,0.0006081462,0.0033552647,1.013279e-06,0.9996139,0.00016108155
5.662441e-07,0.94036746,0.012610108,0.9997753,0.03838092,0.4529344,0.021826118,3.5762787e-07,0.0547224,3.2484531e-06
0.9944142,0.0,3.8444996e-06,5.9604645e-07,6.8843365e-06,0.0010504127,0.00012844801,2.899766e-05,7.471442e-05,0.0008033812
3.2782555e-06,0.9475205,0.0007519722,0.00054079294,1.1354685e-05,0.00515455,0.015775055,2.9802322e-08,0.8477286,0.0012806058
0.99890625,0.0,1.0728836e-06,6.2584877e-07,2.9802322e-08,0.0020821393,8.7440014e-05,0.0,0.00014385581,8.9645386e-05
0.002365619,0.0,1.168251e-05,4.827976e-06,2.1457672e-06,0.00015422702,0.00013923645,8.6426735e-06,0.99735713,8.919835e-05
8.547306e-05,2.169609e-05,0.0008341372,4.4614077e-05,9.655952e-06,2.8669834e-05,0.00090795755,3.516674e-06,0.9983956,0.002027899
8.136034e-06,0.9973,0.003114283,0.95040953,0.00042548776,0.032735705,0.001999408,0.0,0.5507907,0.00034168363
0.94630647,0.0,1.6987324e-06,7.122755e-06,2.0861626e-07,0.0017262697,0.0007670522,5.7816505e-05,0.04476005,0.00074636936
1.4901161e-07,4.172325e-07,0.00014743209,0.00896436,1.7166138e-05,1.0,0.0020250678,9.23872e-07,0.0016097724,1.4901161e-06
0.94827527,0.0,1.2814999e-06,5.9604645e-08,1.1622906e-06,0.00043606758,0.000121593475,0.0034517348,7.7068806e-05,0.009158552
3.2782555e-06,5.9604645e-08,8.195639e-06,0.0,0.0,7.748604e-07,0.00042131543,0.998502,0.9952775,1.6987324e-06
3.2663345e-05,0.9871383,0.001037389,0.007494867,2.026558e-06,0.007912219,0.003563732,1.3709068e-06,0.8527882,0.0010142922
0.9819324,0.0,4.4703484e-06,1.1920929e-07,2.9802322e-08,0.0002040267,0.0003657043,3.9041042e-06,1.3023615e-05,0.006441027
5.3942204e-06,1.0609627e-05,0.00016355515,0.0005506873,1.1026859e-06,0.9988546,0.59285617,7.033348e-06,0.07509276,0.00022685528
8.428097e-05,1.758337e-06,0.00010290742,0.00022745132,5.066395e-07,5.8054924e-05,0.00069722533,1.4901161e-07,0.99986184,3.9428473e-05
0.0005238652,0.85021293,0.018878788,0.6255634,0.00034627318,0.018960118,0.00546813,6.5863132e-06,0.19186473,0.072702885
5.990267e-06,0.00017431378,0.00071904063,0.07389933,0.006364286,0.99924433,0.0062192976,0.0001718998,0.00027793646,0.019867599
3.543496e-05,5.066395e-07,9.6708536e-05,1.1593103e-05,6.1392784e-06,0.000102669,0.0025848448,0.0060586035,0.0013570786,0.96325195
0.015834928,7.4505806e-07,0.00021746755,0.9727937,1.3411045e-06,0.00045707822,0.001511395,1.937151e-06,0.1284051,0.00034797192
0.00037121773,5.364418e-07,2.682209e-06,2.5331974e-06,1.1622906e-06,0.00010326505,0.0011687875,5.364418e-07,0.9987707,0.00025638938
3.6418438e-05,8.940697e-08,1.513958e-05,7.1525574e-07,8.940697e-08,1.8239021e-05,0.00060650706,1.013279e-05,0.99987525,2.5629997e-06
6.854534e-07,4.053116e-06,6.556511e-06,0.9999959,8.910894e-06,0.0010171235,0.01222837,0.0,0.0015144348,5.9604645e-08
1.013279e-06,1.8000603e-05,0.005006045,5.00381e-05,1.6987324e-06,0.999992,0.0022448301,4.172325e-06,0.25871772,1.4394522e-05
0.00014096498,0.0,0.9997419,0.00038215518,5.662441e-07,0.00055766106,0.0013335347,8.6426735e-07,0.1295875,6.4969063e-06
0.8192036,8.940697e-08,1.335144e-05,2.2649765e-06,2.0325184e-05,9.894371e-05,0.00036549568,0.0018148422,0.008932114,0.010889411
3.6746264e-05,5.7160854e-05,1.5169382e-05,2.1785498e-05,8.34465e-07,0.017115146,0.9934579,3.5732985e-05,0.0013137758,0.00069621205
0.9987519,0.0,4.7683716e-07,0.0,2.9802322e-08,0.0006400943,7.584691e-05,0.0,6.991625e-05,1.9490719e-05
2.5629997e-06,0.0,6.854534e-06,0.9999888,0.0,0.000742048,0.00079894066,0.0,0.00017210841,1.4901161e-07
0.0027278066,1.5676022e-05,9.033084e-05,2.5629997e-06,5.9604645e-08,0.0011785924,0.9275718,4.3213367e-06,0.002521515,0.067154825
5.6385994e-05,0.0,1.1622906e-06,3.993511e-06,0.0,5.120039e-05,0.00026330352,5.9604645e-08,0.99995595,4.798174e-06
0.010047674,2.682209e-07,1.3113022e-06,1.513958e-05,2.9802322e-07,0.00010341406,0.0006490946,5.662441e-07,0.9834149,0.0060248375
1.4901161e-07,0.94938517,0.0035625696,0.9954216,0.0012219846,0.0025800765,0.011521786,5.9604645e-08,0.97045034,8.583069e-06
0.99815786,0.0,3.5762787e-07,2.0861626e-07,8.940697e-08,0.00061777234,0.00012269616,8.940697e-08,5.415082e-05,0.00037771463
0.9918986,1.1920929e-07,0.00012797117,1.847744e-06,8.940697e-08,0.0055661798,0.0037233531,2.1457672e-06,0.00022038817,0.00024551153
0.9789673,0.0,3.8146973e-06,2.682209e-07,9.23872e-07,0.00307104,0.00012725592,1.8775463e-06,0.0065007806,0.0012244582
0.00087985396,2.9802322e-08,7.748604e-07,2.682209e-07,0.00026282668,1.129508e-05,0.00033065677,1.6540289e-05,0.9978453,0.00029283762
0.737566,0.0,3.6597252e-05,4.23193e-06,1.2516975e-06,0.00029221177,0.000438869,4.172325e-07,0.53625643,0.00014081597
0.00021618605,0.0,0.00010219216,5.9604645e-07,1.1920929e-07,4.6372414e-05,0.00067812204,0.9996692,0.00011065602,0.00061005354
0.99803334,0.0,8.34465e-07,3.1590462e-06,8.940697e-08,0.0007469952,0.00019195676,0.0,0.00042366982,0.0001848042
1.1920929e-07,0.0001437962,0.91359985,0.77086616,0.00054228306,0.9964217,0.06020063,2.8967857e-05,0.18110675,2.4616718e-05
0.41995806,0.0,3.6358833e-06,1.2725592e-05,1.0043383e-05,0.00021359324,0.00048834085,0.00043097138,0.49805778,0.00014939904
0.64584154,2.0861626e-07,0.007592559,1.0997057e-05,5.850196e-05,0.0003863871,0.002231598,0.0019167662,0.0038878918,0.004319936
0.003517896,0.0,0.00033020973,2.8908253e-06,6.598234e-05,5.7160854e-05,0.0012385845,9.652972e-05,0.98482955,0.0005080104
5.698204e-05,2.9802322e-08,3.0696392e-06,3.7252903e-06,6.2584877e-07,1.31726265e-05,0.00027289987,2.0861626e-07,0.99994016,8.106232e-06
0.0014388263,8.940697e-08,7.0929527e-06,0.0018297434,1.2516975e-06,0.00085666776,0.8746308,1.4007092e-06,0.00020840764,0.00017178059
0.037964225,0.0,5.662441e-07,6.2584877e-07,5.9604645e-08,8.970499e-05,0.00023072958,1.579523e-05,0.98927057,6.824732e-05
0.99521756,0.0,5.185604e-06,8.6426735e-07,1.7881393e-06,0.0009251535,8.2314014e-05,1.7285347e-06,1.591444e-05,0.0017055571
0.9965874,0.0,7.1525574e-07,2.9802322e-08,2.9802322e-08,0.00067424774,0.00019663572,3.5464764e-06,5.096197e-06,0.00012487173
0.0044810474,0.0,1.0728836e-06,2.0861626e-07,1.1920929e-06,3.6001205e-05,0.00032535195,0.99809617,5.725026e-05,1.4603138e-05
0.00010243058,7.897615e-06,0.00011527538,4.851818e-05,3.0696392e-06,0.99999374,0.00057706237,6.16312e-05,0.00013193488,1.0371208e-05
0.015062362,2.682209e-07,7.390976e-06,1.2218952e-06,1.4901161e-07,0.0029113293,0.011313587,5.143881e-05,0.953689,9.453297e-05
0.0011407137,3.5762787e-07,0.00014352798,3.784895e-06,7.2419643e-06,4.6044588e-05,0.00032049417,1.9073486e-06,0.99547327,0.003989339
2.1755695e-06,1.5199184e-06,0.9961698,0.0007967055,0.00021269917,0.0013988316,0.04418248,1.4901161e-07,0.99231476,6.2584877e-07
0.0,0.00069221854,1.0102987e-05,0.9999816,5.066395e-07,0.004439831,0.2166808,0.0,0.051312387,9.745359e-06
3.629923e-05,2.9802322e-08,0.0004968047,7.4476004e-05,2.2023916e-05,9.357929e-06,0.00015604496,1.5616417e-05,0.00013381243,0.9994453
0.095841855,2.9802322e-08,0.003165394,4.708767e-06,3.361702e-05,6.005168e-05,0.00067284703,2.115965e-06,0.5111249,0.03744787
0.003592044,1.1920929e-07,3.132224e-05,1.1265278e-05,1.21593475e-05,0.0061679184,0.0068002045,7.867813e-06,0.014171869,0.03514257
0.9871533,0.0,3.3050776e-05,1.3113022e-06,5.364418e-07,0.00087064505,0.00038915873,0.0004952848,6.389618e-05,0.0019210577
0.98235905,0.0,1.66893e-06,1.6987324e-06,2.3841858e-07,0.0010755658,0.00023272634,9.8615885e-05,0.00044810772,0.00138399
0.0010787845,0.8985196,0.0010612011,0.004124582,8.0138445e-05,0.0057097375,0.007390648,6.854534e-07,0.1311022,0.006308526
2.9951334e-05,1.7881393e-07,2.6673079e-05,1.1622906e-06,8.940697e-08,0.00018566847,0.0008135438,2.861023e-06,0.016154826,0.96556365
7.748604e-07,2.9802322e-08,0.9992597,0.00016203523,0.00057035685,0.00027641654,0.001214683,4.8190355e-05,0.9964231,6.2584877e-07
0.97475004,5.9604645e-08,0.10749328,8.6426735e-07,8.940697e-08,0.00013375282,0.00041747093,8.136034e-06,0.0003402233,0.00012677908
2.0861626e-06,0.0001898408,0.043426752,0.99385273,4.014373e-05,7.298589e-05,0.002150327,1.5497208e-06,0.63979506,7.149577e-05
1.8954277e-05,0.9897987,0.00042936206,0.00027519464,1.8924475e-05,0.005714774,0.0017008185,4.7683716e-07,0.22335494,0.00020548701
0.00023820996,8.940697e-08,4.053116e-06,2.7120113e-06,1.1920929e-07,5.248189e-05,0.0011645555,6.556511e-06,0.9985953,0.00082457066
6.854534e-07,6.2584877e-07,0.9988709,0.007917464,0.00010505319,0.07614967,0.0010331273,1.4305115e-06,0.83080596,2.0861626e-07
0.6309591,0.0,7.748604e-07,1.1920929e-07,0.0,0.0005104244,0.00012245774,0.0012433827,0.5751252,5.275011e-05
0.18149862,0.0,3.0100346e-06,0.0,2.0861626e-07,3.257394e-05,0.00025260448,0.1329546,0.040326387,0.0012244582
0.97315097,0.0,7.4505806e-06,0.0,0.0,1.9222498e-05,0.00019818544,0.010858297,7.748604e-07,2.220273e-05
0.0,2.6524067e-06,1.6748905e-05,3.4987926e-05,8.940697e-08,0.99999857,0.0014476478,8.940697e-08,0.9868779,2.0861626e-07
0.93474495,0.0,1.1920929e-05,2.3841858e-07,8.940697e-08,0.00023770332,0.00041159987,1.7881393e-07,0.13526213,3.0040741e-05
0.0046047866,0.0,5.722046e-06,1.7881393e-07,9.834766e-07,0.00022178888,0.00019311905,0.0007060766,0.9565071,0.002359122
0.056679875,8.940697e-08,5.4866076e-05,3.993511e-06,2.3841858e-07,0.00034561753,0.0005296469,4.4107437e-06,0.92555714,0.019759595
0.0,2.503395e-06,0.00016188622,5.3733587e-05,2.4825335e-05,0.9999999,0.0041129887,3.1292439e-06,0.74965584,1.6093254e-06
2.9802322e-07,0.00014680624,0.019301474,0.10315317,0.00013518333,0.38335636,0.777297,1.9490719e-05,0.0011495352,0.003442943
0.15807119,5.066395e-07,1.5497208e-06,2.682209e-06,8.940697e-08,0.00021278858,0.00027278066,0.00033012033,0.00018844008,0.91532886
8.404255e-06,0.0,0.00020378828,4.2170286e-05,2.0861626e-07,5.865097e-05,0.0009300709,0.9982947,3.0010939e-05,0.0003041029
2.9802322e-08,0.0,2.3543835e-05,9.378791e-05,0.9982301,0.00018018484,0.0045138896,1.1563301e-05,0.3287754,1.642108e-05
3.5762787e-07,0.0004235506,0.0031985939,5.9127808e-05,1.5586615e-05,0.9980035,0.49309775,5.9604645e-07,0.0073816776,5.2809715e-05
0.98881614,0.0,3.5762787e-07,1.1622906e-06,1.1920929e-07,0.00021481514,0.00011700392,0.0,0.0006787181,0.0008547902
4.4703484e-07,0.0,6.2584877e-07,0.99997944,3.5762787e-07,0.00033703446,0.00022643805,0.0,0.0013391078,2.9802322e-07
0.00026267767,2.3841858e-07,0.0041920245,2.6464462e-05,0.0003248155,0.00011384487,0.0025061667,2.9593706e-05,0.9287801,0.00028532743
0.0015574098,2.9802322e-08,0.9898648,4.4226646e-05,1.0251999e-05,9.8735094e-05,0.0021416545,0.000105679035,0.13020316,0.0001654923
0.0005891621,4.7683716e-07,1.0281801e-05,7.748604e-07,2.9802322e-08,0.0035083294,0.9889277,0.00013491511,0.0031499267,0.00039440393
0.5958994,2.3841858e-07,2.7358532e-05,7.4505806e-07,9.23872e-07,0.00048586726,0.0018409789,4.172325e-07,0.5330086,0.0037803352
1.4305115e-06,9.855628e-05,0.0010426342,0.0015861988,3.400445e-05,0.9750695,0.90474033,1.5974045e-05,0.005557388,0.0014468133
1.9073486e-06,2.9802322e-08,3.1292439e-06,5.1677227e-05,2.9802322e-07,0.9854989,0.8974572,4.7683716e-07,0.00039944053,0.00010320544
0.98968375,0.0,4.2915344e-06,1.4603138e-06,3.7550926e-06,0.0010576844,0.0005529225,4.440546e-06,0.00035104156,0.003199935
0.007183492,0.0,0.012309194,0.00033676624,2.4706125e-05,0.0005700886,0.00019228458,1.0788441e-05,0.02517575,0.012641937
7.301569e-06,0.000125736,0.0011175573,0.0010633469,4.3213367e-06,0.9999161,0.0070673823,2.8312206e-06,0.14254037,0.003971547
0.9933511,0.0,5.453825e-06,1.4901161e-07,1.1920929e-07,0.00082719326,0.00021213293,0.00037878752,9.11057e-05,3.8564205e-05
5.9604645e-08,2.0861626e-07,0.9969395,0.9998919,3.4213066e-05,0.00690645,0.013967484,8.940697e-08,0.045913786,0.0
0.29365033,5.9604645e-08,1.6093254e-06,1.3411045e-06,2.0861626e-07,0.00063326955,0.00017282367,1.0728836e-06,0.7574831,0.001990676
0.26717526,0.0,3.3676624e-06,5.662441e-07,3.5762787e-07,1.847744e-05,0.0005828738,0.9641546,4.1484833e-05,1.40070915e-05
8.165836e-05,0.0,4.6104193e-05,9.23872e-07,2.3841858e-07,0.0008504689,0.00095129013,0.9568535,8.332729e-05,0.14202961
0.55054307,2.9802322e-08,8.147955e-05,1.9699335e-05,8.940697e-07,0.00030761957,0.0015601814,2.682209e-07,0.14737648,0.0034519136
0.9853028,2.9802322e-08,3.4332275e-05,5.6028366e-06,1.7881393e-07,0.0013435185,0.00049865246,3.8444996e-06,0.000510931,0.010748059
0.03211248,5.9604645e-08,1.5318394e-05,8.940697e-07,4.172325e-07,0.00037169456,0.00040066242,0.0,0.0004402995,0.9694963
0.00010332465,0.0,2.3692846e-05,0.0005623102,0.9992161,8.678436e-05,4.541874e-05,2.3245811e-06,0.0019432902,0.00047564507
0.9956357,0.0,5.9604645e-07,2.0861626e-07,5.9604645e-07,0.00030830503,0.00025430322,2.604723e-05,8.672476e-06,0.0003566146
7.1525574e-05,0.00043734908,0.000331074,3.0636787e-05,3.2186508e-05,0.0023350418,0.8316946,3.5762787e-07,0.64013237,0.0003735721
0.986311,0.0,3.0994415e-06,3.695488e-06,5.9604645e-07,0.00065875053,0.0003079474,0.0,0.022447348,4.8458576e-05
0.0002707541,6.854534e-07,3.2782555e-07,2.9802322e-07,2.9802322e-08,8.109212e-05,0.0007582605,0.0,0.99511504,0.0046989024
2.9802322e-08,0.9989103,0.00013625622,0.9995981,0.00018441677,0.014305651,0.007467836,0.0,0.9482727,1.5497208e-06
0.9983921,0.0,9.23872e-07,2.9802322e-08,0.0,0.0010527074,8.034706e-05,7.650256e-05,1.2457371e-05,1.6897917e-05
0.36178178,2.9802322e-08,4.172325e-06,1.7881393e-07,0.0,2.4467707e-05,0.0001565218,0.00019779801,8.940697e-07,0.71456134
0.9919397,0.0,7.748604e-07,2.9802322e-08,0.0,0.0005942881,0.00026628375,0.00024369359,0.00019055605,5.5253506e-05
0.97261846,0.0,1.5467405e-05,4.142523e-06,1.7881393e-06,0.00039458275,0.00018256903,1.6987324e-06,0.009448826,0.009079218
0.4697055,1.1920929e-07,3.5464764e-06,4.2915344e-06,1.3142824e-05,0.0014501214,0.005214095,1.2516975e-06,0.43907547,0.0019412637
0.9882307,5.9604645e-08,0.00014781952,1.8775463e-06,3.874302e-07,0.00224033,0.0023940206,8.34465e-07,5.915761e-05,0.0016460717
0.9973853,0.0,1.1622906e-06,1.4901161e-07,0.0,0.0010428429,0.0004130304,2.0861626e-07,7.072091e-05,0.00034466386
1.5795231e-06,0.0,0.0,0.0,0.0,2.9802322e-08,4.440546e-06,8.940697e-08,6.2584877e-07,0.9999977
1.4007092e-06,0.0,1.1920929e-07,0.0,0.0,0.0,8.702278e-06,8.940697e-08,1.7881393e-06,0.99999976
1.7672777e-05,0.9801667,0.0016858876,0.8827887,6.303191e-05,0.01509428,0.016340375,5.9604645e-08,0.0020577013,0.00024804473
1.6599894e-05,0.99949193,0.0021558106,0.00012880564,1.9699335e-05,0.008083999,0.0010176599,1.0043383e-05,0.07612994,0.00011134148
4.053116e-06,2.3841858e-07,0.003253907,6.0528517e-05,0.9983257,2.142787e-05,0.0017922223,4.5895576e-06,0.48420718,1.2755394e-05
0.99846894,0.0,8.940697e-07,8.940697e-08,0.0,0.0002988577,0.00022533536,5.00679e-06,2.0235777e-05,5.5342913e-05
4.044175e-05,5.364418e-07,9.834766e-07,1.0341406e-05,1.4901161e-07,9.146333e-05,0.051095486,1.7881393e-06,0.9782777,0.0018589795
0.9964974,0.0,1.4394522e-05,2.9802322e-07,0.0,0.0012212694,0.00041025877,2.682209e-07,5.8978796e-05,2.0772219e-05
1.6391277e-06,4.4703484e-07,5.1170588e-05,0.9999143,8.136034e-06,0.0021469593,0.0012128055,0.0,4.6670437e-05,6.377697e-05
5.2452087e-06,2.9802322e-08,0.98789203,4.8160553e-05,0.014214307,3.221631e-05,0.0009306669,3.9845705e-05,0.9796989,4.246831e-05
6.377697e-06,5.275011e-06,0.00027132034,5.5372715e-05,4.1127205e-06,9.983778e-05,0.000115543604,0.0,0.000116467476,0.9993142
1.4007092e-06,0.0,1.1920929e-07,0.0,0.0,0.0,8.702278e-06,8.940697e-08,1.7881393e-06,0.99999976
2.4437904e-06,0.0,2.2053719e-06,0.9999897,2.3841858e-07,8.109212e-05,0.00048169494,0.0,1.1622906e-06,2.3841858e-07
0.9832649,0.0,2.592802e-06,8.940697e-08,2.0861626e-07,0.0015375018,0.00091955066,0.00026008487,2.4735928e-05,0.00020232797
0.052998304,0.0,3.3974648e-06,5.364418e-07,2.682209e-07,0.00015619397,0.00032311678,1.6540289e-05,0.95691466,2.7805567e-05
0.99819183,0.0,7.748604e-07,0.0,1.1920929e-07,0.0012499392,0.00034093857,2.7120113e-06,1.79708e-05,7.164478e-05
0.9777013,0.0,1.4305115e-05,1.1920929e-06,1.7881393e-07,0.0014726818,8.049607e-05,1.1920929e-07,0.00012519956,0.0032388568
0.061888903,1.2457371e-05,6.645918e-06,1.2218952e-06,1.2516975e-06,0.004899591,0.96827495,7.4505806e-07,0.0013652742,0.000116825104
0.0028799176,2.9802322e-07,0.00019648671,0.1300205,0.008098781,0.00046300888,0.0014266372,3.1769276e-05,0.29421812,0.012049824
0.0025312304,0.0,8.6426735e-07,1.1920929e-06,8.940697e-08,6.6906214e-05,0.009139478,2.682209e-07,0.9805252,0.000110685825
0.9878984,0.0,3.874302e-07,5.9604645e-08,1.7881393e-07,0.0006953478,8.049607e-05,0.00042417645,4.36306e-05,0.0019315183
8.940697e-08,0.011515886,0.21059096,0.9999751,0.00038704276,0.012324303,0.0052657127,0.0,0.12238681,1.1920929e-07
0.0,3.2007694e-05,0.003778994,0.9999747,0.00050231814,0.00023788214,0.3750971,0.0,0.9867094,2.9802322e-08
0.0,1.4901161e-07,0.9980844,0.999778,0.0,0.0022461414,0.003290236,0.0,0.00048699975,2.3841858e-07
0.9787976,2.9802322e-08,0.00093883276,4.172325e-07,1.4007092e-06,0.0011771917,0.0014499128,6.1929226e-05,0.019612283,0.0008404553
0.008278608,2.9802322e-08,6.2584877e-07,1.5199184e-06,0.0,0.00020682812,0.00027653575,5.9604645e-08,0.98764503,0.0017066896
0.0029518008,4.0709972e-05,2.3841858e-06,1.8417835e-05,2.9802322e-07,0.000554204,0.029492587,2.0861626e-07,0.96181643,0.011058241
0.0035851598,0.0,8.6426735e-06,5.9604645e-07,7.4505806e-07,3.4958124e-05,0.00036796927,5.751848e-06,0.99546957,0.0004963279
0.9985018,0.0,1.7881393e-06,0.0,2.0563602e-06,0.00048956275,0.00010210276,7.1525574e-07,0.000107854605,0.0005030036
2.3841858e-07,0.00035822392,0.00083741546,0.99993277,0.0025846064,0.0021488667,0.15207678,0.0,0.8930616,1.1920929e-07
0.0,8.7320805e-06,0.7406863,9.6678734e-05,2.0861626e-07,0.0027042031,0.85550195,0.0,0.9892211,5.9604645e-08
0.15227515,8.940697e-08,3.3676624e-06,1.04904175e-05,8.940697e-08,0.00022855401,0.00052019954,1.4901161e-06,0.9591185,0.000100791454
0.99958676,0.0,1.7881393e-07,5.662441e-07,5.9604645e-08,0.00024008751,0.000109136105,2.9802322e-07,6.556511e-06,2.5719404e-05
6.2584877e-07,1.1920929e-07,1.1652708e-05,0.999987,9.536743e-07,0.0001334548,0.00097227097,0.0,0.014820933,1.1920929e-06
1.6987324e-06,8.791685e-06,0.018785626,0.9996952,0.009247243,0.0001693666,0.0011986196,0.0,0.00023305416,1.2814999e-06
0.00051802397,0.99749154,0.00015363097,1.1920929e-06,4.172325e-07,0.0032002926,0.00181216,5.9604645e-08,0.0002632439,6.696582e-05
0.0067925453,1.1920929e-07,2.026558e-06,6.854534e-07,9.23872e-07,0.00016957521,0.0007709861,4.529953e-06,0.996716,2.4020672e-05
1.3232231e-05,0.009737045,3.9041042e-05,0.0037567914,5.185604e-06,0.010581493,0.88205415,1.4901161e-07,0.12599614,0.0093815625
0.00015425682,0.9951222,0.0021978617,4.068017e-05,1.2457371e-05,0.0066927075,0.0017188787,6.556511e-07,0.06815058,0.0004003346
0.9958395,0.0,2.8908253e-06,1.1920929e-07,5.9604645e-08,0.00090134144,0.00026878715,0.0,0.00088721514,3.8564205e-05
1.4007092e-06,0.0,1.1920929e-07,0.0,0.0,0.0,8.702278e-06,8.940697e-08,1.7881393e-06,0.99999976
0.0077499747,1.9967556e-06,0.0001193881,3.5613775e-05,8.940697e-08,2.849102e-05,0.0018969774,1.1026859e-06,0.006167352,0.98627275
0.00051537156,5.364418e-07,0.00027748942,7.748604e-07,1.4603138e-06,0.0002322495,0.00067538023,8.493662e-06,0.9990032,3.4868717e-05
0.00017344952,1.4901161e-07,0.0008737743,5.6922436e-06,0.001426369,3.1858683e-05,0.00068315864,1.937151e-06,0.0001796782,0.99139285
0.9997391,0.0,2.9802322e-08,0.0,0.0,0.00072306395,0.00020483136,1.1920929e-07,5.3942204e-06,7.748604e-07
0.99973524,0.0,3.5762787e-07,2.9802322e-08,5.9604645e-08,0.00038337708,0.00016599894,2.0861626e-07,5.841255e-06,1.0579824e-05
0.0010202825,4.7683716e-07,3.0100346e-06,4.9471855e-06,2.0861626e-07,8.842349e-05,0.00023412704,2.6524067e-06,0.9987312,0.0001797378
0.005051434,0.78200006,0.0027698576,0.0001746118,7.1525574e-07,0.0042975545,0.025075823,8.85129e-06,0.013849884,0.0034900308
0.0023082495,8.940697e-08,7.015467e-05,1.1622906e-06,8.940697e-08,7.861853e-05,0.0011743009,3.5762787e-07,0.9918519,0.0020603538
3.5762787e-07,0.04152417,0.008563578,0.019582361,0.0032144785,0.9980122,0.14703402,0.00014400482,0.5618644,0.00014576316
0.00015091896,1.3411045e-06,0.0020267367,1.9788742e-05,5.066395e-07,0.60883915,0.010428458,1.66893e-06,0.07476789,0.017114699
0.0016584992,1.1920929e-07,2.9802322e-07,8.195639e-06,2.9802322e-07,8.663535e-05,0.00027534366,0.0,0.99852544,0.00011572242
0.91578364,7.1525574e-07,5.3077936e-05,2.9802322e-08,8.940697e-08,0.000135988,0.00034487247,2.0861626e-06,2.1755695e-05,0.06818694
0.011952341,0.0,0.99767977,0.0011379421,1.4901161e-07,0.0006043017,0.0027982295,5.990267e-06,0.0004968941,6.914139e-06
0.9483633,8.940697e-08,3.3825636e-05,2.8908253e-06,0.0,0.0020903647,0.00093850493,2.0861626e-07,0.009315312,0.00085783005
0.5051805,2.9802322e-08,3.2484531e-06,2.2679567e-05,8.940697e-08,0.0005542338,0.0012265444,1.642108e-05,0.45412496,0.00031980872
2.0861626e-07,0.99963695,5.108118e-05,0.0009936988,0.00023245811,0.001363337,0.00012874603,2.2053719e-06,0.48617488,0.0004284382
2.8908253e-06,0.0,3.2782555e-07,0.99997973,0.0,0.00033426285,0.00014701486,0.0,1.475215e-05,0.0
1.4901161e-07,0.0007791519,0.045238018,0.55326223,0.012799293,8.7469816e-05,0.0048918426,3.6656857e-06,0.99935234,1.2814999e-06
0.9978925,0.0,3.427267e-06,1.1920929e-07,8.940697e-08,0.00096175075,0.00010892749,2.9802322e-08,1.3381243e-05,0.000110954046
0.0022588372,2.3245811e-06,0.000764519,3.963709e-06,5.9604645e-07,0.99824435,0.0044795275,5.7816505e-06,0.0034122765,0.00015860796
0.99716127,0.0,1.6391277e-06,1.1026859e-05,5.9604645e-08,0.00033289194,0.00030449033,1.758337e-06,5.465746e-05,0.0003990531
0.0,8.493662e-06,0.0001951456,0.00027635694,1.1861324e-05,0.9999803,0.002717644,3.7550926e-06,0.9836707,8.34465e-07
4.7683716e-07,4.172325e-07,1.0430813e-05,0.9999951,6.854534e-07,0.00043064356,0.0023518503,0.0,0.00013333559,2.3841858e-07
1.1920929e-07,0.9973452,0.00047957897,0.9995085,0.00010496378,0.0051977336,0.00032418966,2.9802322e-08,0.4733295,9.387732e-06
1.2636185e-05,7.1525574e-07,0.00013628602,3.5703182e-05,1.564622e-05,0.99999934,0.0022042096,9.23872e-07,0.0011758506,1.1533499e-05
0.0054667294,0.0,3.9041042e-06,6.2584877e-07,8.34465e-07,0.00014203787,0.00056150556,4.7683716e-07,0.9975766,1.5795231e-06
0.007316321,0.0,4.7683716e-07,7.1525574e-07,0.0,7.0244074e-05,0.00016099215,1.2814999e-06,0.98946786,0.0003105104
0.013234913,0.0,9.030104e-06,3.2782555e-06,0.07724357,0.00015944242,0.000649482,0.00018361211,0.9217577,1.9967556e-05
0.0011604726,8.940697e-08,0.037903517,2.2947788e-06,2.9593706e-05,1.296401e-05,0.0007480681,5.364418e-07,0.99890685,3.6358833e-06
0.9397765,0.0,8.285046e-06,0.0,3.6656857e-06,0.05167216,0.0003092587,1.9460917e-05,4.6908855e-05,0.00018468499
0.9940077,0.0,5.096197e-06,1.1026859e-06,2.3841858e-07,0.0016400814,0.000718981,1.66893e-06,3.6984682e-05,0.0007440746
0.0028689206,2.0235777e-05,3.7521124e-05,5.6684017e-05,7.7188015e-06,0.00016030669,0.64687765,0.28308162,0.0017212629,0.02112919
0.99824154,0.0,2.682209e-07,6.2584877e-07,2.4735928e-06,0.00033903122,0.00020638108,2.7120113e-06,4.762411e-05,0.00031638145
9.49204e-05,1.4007092e-06,0.06928444,0.00017800927,8.34465e-07,8.037686e-05,0.0024617314,2.7775764e-05,0.99648726,0.0015043914
5.066395e-07,0.9996089,5.441904e-05,0.03638941,2.130866e-05,0.007901579,0.00028175116,0.0,0.8809769,3.46303e-05
0.0,9.834766e-07,0.99760807,0.9985355,0.53145254,0.00025871396,0.050004274,1.847744e-06,0.00028958917,2.9802322e-08
1.591444e-05,0.9997522,0.00021028519,2.3245811e-05,7.748604e-07,0.0076214373,0.0026987195,2.9802322e-08,0.0069520175,6.03199e-05
0.998364,0.0,3.1292439e-06,4.053116e-06,0.0,0.0030345619,0.0005944669,8.940697e-08,0.00032803416,1.7285347e-05
0.0007484853,0.005725473,7.6800585e-05,9.274483e-05,1.0728836e-06,0.00044822693,0.0022197068,0.0,0.9619359,0.017569572
0.021479487,0.0,1.937151e-06,1.937151e-06,0.0,0.00035214424,0.0009612739,5.9604645e-08,0.9673909,0.0032859445
0.000104248524,5.185604e-06,1.3947487e-05,9.983778e-06,0.0,0.0020341873,0.9969295,8.940697e-08,0.0013704896,0.0016318262
0.03751132,0.0,2.6375055e-05,1.4901161e-07,1.1026859e-06,8.0645084e-05,0.00026991963,0.0006939769,0.9769143,8.583069e-06
0.00036731362,2.5629997e-06,0.02961436,2.193451e-05,6.8992376e-05,0.00035968423,0.00486511,1.1056662e-05,0.15121317,0.018205613
0.99476844,0.0,9.298325e-06,3.2782555e-07,0.0,0.00022235513,0.001062125,3.2782555e-06,1.513958e-05,0.0006529987
0.07209754,4.7683716e-07,3.5256147e-05,1.1026859e-05,7.8082085e-06,0.00014334917,0.0005264282,2.3841858e-07,0.0032769144,0.9795594
0.00021570921,0.0,0.99294627,7.95722e-06,3.4987926e-05,0.00015667081,0.0015980005,6.657839e-05,0.0008715987,0.0026210248
0.0,0.0003452599,4.7922134e-05,0.9999977,2.95043e-06,0.0033174753,0.86889577,0.0,2.8401613e-05,8.940697e-08
0.99616706,0.0,3.2782555e-07,5.9604645e-08,0.0,0.00080028176,0.00046819448,1.3113022e-06,4.529953e-06,9.557605e-05
0.49729484,1.1920929e-07,0.00022128224,5.096197e-06,2.9802322e-08,0.000120043755,0.00079384446,0.00012463331,0.0001231134,0.71271515
5.9604645e-08,1.9490719e-05,0.0011227131,0.25540084,0.00024822354,0.99999946,0.0015558004,6.854534e-07,0.0026002228,7.221103e-05
4.8428774e-05,1.7881393e-07,5.990267e-06,2.9802322e-08,2.9802322e-08,0.00013887882,0.006804168,5.9604645e-08,6.8843365e-06,0.9984631
3.0100346e-06,0.9986601,0.0009353757,0.00030586123,4.592538e-05,0.7227219,0.0007674098,8.940697e-07,0.2138429,2.4616718e-05
0.41713274,0.0,2.2053719e-06,0.0,1.4901161e-07,0.00021585822,4.544854e-05,0.2424775,0.0001385808,0.08134341
0.9993102,0.0,1.1920929e-06,1.1920929e-07,5.9604645e-08,0.00048315525,0.00013643503,2.9802322e-08,7.122755e-06,6.54459e-05
0.5163647,2.9802322e-08,1.66893e-06,2.9802322e-06,8.940697e-08,0.00027811527,0.00038409233,5.4836273e-05,0.68043697,2.6643276e-05
0.4660829,1.12354755e-05,0.08319357,1.579523e-05,3.6358833e-06,0.0025161505,0.0037748516,0.005574167,0.08115193,0.057961076
3.1083822e-05,0.0,1.4007092e-06,1.7881393e-07,0.0,0.00068604946,0.0032085776,0.0,0.9996735,7.4207783e-06
0.9964511,0.0,5.9604645e-07,7.1525574e-07,2.3841858e-07,0.00040322542,0.00035855174,6.0796738e-06,9.804964e-06,0.00023970008
0.0011765957,5.9604645e-08,4.172325e-07,1.4007092e-06,8.940697e-08,2.759695e-05,0.00025701523,1.1920929e-07,0.9990823,4.3421984e-05
0.024094611,1.4901161e-07,0.00018459558,1.013279e-06,1.9937754e-05,6.082654e-05,0.00042298436,1.0102987e-05,0.9904227,8.46684e-05
0.00092065334,5.9604645e-08,3.3438206e-05,3.5375357e-05,1.3113022e-06,6.29127e-05,0.0007916987,9.23872e-07,0.99867475,0.00023049116
2.6524067e-06,2.3841858e-07,8.2820654e-05,9.417534e-06,4.172325e-07,0.9999979,0.0017978251,9.298325e-06,0.0150104165,1.1026859e-05
0.0038553774,3.1888485e-06,0.00074347854,8.314848e-06,3.5762787e-07,0.0018366277,0.99015105,0.0,1.8328428e-05,2.56598e-05
5.8233738e-05,0.9780148,0.005446613,0.0048598945,9.5665455e-06,0.010836542,0.0024195611,2.682209e-07,0.6730791,0.006875694
