0,1,2,3,4,5,6,7,8,9
0.96534604,0.0,2.592802e-06,4.3213367e-06,1.7881393e-06,0.0020260513,0.0018446743,7.748604e-07,0.007856905,0.00094112754
0.9072306,0.0,6.556511e-07,0.00025051832,2.9802322e-08,0.0018291473,0.0010356307,0.062013447,3.5375357e-05,0.0015245676
1.2397766e-05,1.3113022e-06,0.0027179122,0.00088471174,0.9670633,0.99919856,0.0244191,4.082918e-05,0.0015528202,2.2470951e-05
0.0,2.8014183e-05,8.940697e-07,0.99999404,8.6426735e-07,0.00064477324,0.8289523,2.9802322e-08,2.3692846e-05,2.026558e-06
3.4719706e-05,0.0,1.4901161e-07,0.9999909,4.4703484e-07,0.0004104674,0.00030717254,0.0,0.00014254451,0.0
0.98579246,0.0,0.0,0.0,8.940697e-08,5.8948994e-05,0.0005915463,0.0002117455,5.453825e-06,4.6014786e-05
0.0018190444,2.0861626e-07,4.8577785e-06,8.478761e-05,3.874302e-07,0.0018977821,0.009164423,8.940697e-08,0.98810637,0.0010796785
0.0,0.0,1.937151e-06,0.9999999,0.9750428,0.000116080046,0.0010581017,0.0,0.00016182661,0.0
8.940697e-08,0.0,6.2584877e-07,0.54100376,0.0,3.8832426e-05,0.0021308064,1.3113022e-06,0.9999156,2.9802322e-08
0.00019472837,2.8371811e-05,1.66893e-06,2.5629997e-06,1.7285347e-06,0.0071445405,0.9986178,2.4735928e-06,0.0062211454,0.0005362928
2.2649765e-06,7.1525574e-07,0.8632215,4.8279762e-05,1.2993813e-05,0.00086939335,0.019214064,1.090765e-05,0.99730027,7.688999e-06
0.00040087104,0.0,1.6450882e-05,1.1920929e-07,5.9604645e-08,2.7656555e-05,0.0022106767,1.2516975e-06,0.9997146,2.9802322e-07
1.1920929e-07,0.33495575,0.00049480796,0.98670745,1.9073486e-06,0.0025946498,0.006024748,8.940697e-08,0.8943386,0.00027167797
0.00020760298,0.9559427,0.03595078,0.0048764944,5.096197e-06,0.0044023097,0.007474631,1.2814999e-06,0.027517676,0.018189877
0.04376939,0.0,3.7163496e-05,8.85129e-06,5.9604645e-08,0.0007688105,0.003015548,0.00044223666,0.9726107,5.4329634e-05
0.005330682,0.01756978,0.005760312,0.0001026392,4.142523e-06,0.0033753812,0.2755438,2.3841858e-06,0.808617,0.0049533546
1.1920929e-07,0.0,1.6391277e-06,0.9999978,1.642108e-05,0.00021451712,0.0065874457,0.0,0.18249524,2.9802322e-08
0.98299444,0.0,1.9282103e-05,1.9311905e-05,0.0,0.0012308955,0.00070884824,1.8775463e-06,0.00048434734,0.0057524145
1.013279e-06,0.001601547,0.048721373,0.00016888976,0.001753211,0.0068104565,0.7962487,0.0015929639,0.08129069,0.004781157
9.834766e-06,1.5199184e-06,1.6093254e-06,0.00032123923,8.881092e-06,0.0002604723,0.8178783,5.155802e-06,0.9935137,1.1861324e-05
0.9978409,0.0,2.682209e-07,8.940697e-08,0.0,0.00035834312,0.00052800775,1.4692545e-05,6.67572e-05,1.758337e-05
0.0030317605,4.3809414e-06,0.95558584,0.0025116503,6.556511e-07,0.0020141602,0.0022905767,7.8082085e-06,0.0017829537,6.502867e-05
0.9983003,0.0,2.9802322e-08,2.682209e-07,0.0,0.00023436546,0.00038087368,9.23872e-07,3.415346e-05,0.0001834929
0.00039625168,2.4080276e-05,0.00071552396,0.07387829,6.0796738e-06,0.0031576753,0.005513042,1.5169382e-05,0.9915646,0.00039985776
0.0012967885,0.0,2.2113323e-05,1.4007092e-06,1.1652708e-05,0.0001848638,0.0064614713,1.4305115e-06,0.9977612,2.2649765e-05
2.5629997e-06,3.72231e-05,0.6081732,0.0010778606,0.03289473,0.18045944,0.02467838,0.0016287267,0.042112827,0.031730235
0.0021852255,0.000736475,7.0124865e-05,2.3841858e-07,7.4505806e-07,0.0031166673,0.8598796,0.0003298521,0.00038927794,0.0024081767
0.9656837,0.0,1.7285347e-06,0.0,0.0,0.00017812848,0.0009600222,0.015805721,2.4497509e-05,1.7642975e-05
0.01667443,0.0,2.1457672e-06,1.1891127e-05,2.9802322e-08,0.00012999773,0.0011209846,0.99516034,0.0019624233,1.1473894e-05
9.23872e-07,0.9945189,0.0001912415,0.42959648,1.3113022e-06,0.0021793246,0.015015215,0.0,0.9812012,0.00023680925
0.00035366416,1.6778708e-05,1.7881393e-07,3.2782555e-07,5.9604645e-08,0.0032147765,0.99819386,1.1920929e-07,0.012654722,0.00023239851
4.798174e-06,2.7626753e-05,1.5795231e-06,4.827976e-06,5.066395e-07,0.0037290454,0.9957119,4.7683716e-07,0.34275427,0.0003862083
0.019951195,3.516674e-06,2.6524067e-06,4.4703484e-07,2.7418137e-06,0.0012285113,0.9901158,5.364418e-07,0.0004892349,3.8951635e-05
1.66893e-06,1.1920929e-07,1.8507242e-05,0.9999767,0.00018209219,0.0005378127,0.020287693,8.562207e-05,0.00012364984,4.261732e-06
0.80936885,0.0,9.357929e-06,3.5762787e-07,8.6426735e-07,0.0008199513,0.0018244088,1.2218952e-05,0.3996036,3.552437e-05
0.9982507,0.0,8.34465e-07,0.0,0.0,0.00041744113,0.00036796927,1.4901161e-07,1.7136335e-05,6.341934e-05
0.9606809,0.0,1.8179417e-06,5.364418e-07,8.940697e-08,0.0012381375,0.0019975305,2.9802322e-08,0.053853393,0.0010534227
0.9976374,0.0,2.9802322e-07,4.172325e-07,0.0,0.0003989935,0.00065383315,9.536743e-07,5.620718e-05,8.156896e-05
0.94934976,0.0,4.3213367e-06,6.556511e-07,1.1920929e-07,0.0012424588,0.0006324053,4.917383e-06,0.00015386939,0.06362057
3.8832426e-05,0.0,3.1888485e-06,1.5467405e-05,5.9604645e-08,0.00014743209,0.002885133,8.940697e-08,0.99995136,6.1392784e-06
1.3709068e-06,6.1690807e-06,0.9662248,5.015731e-05,1.6331673e-05,0.0010362267,0.0023691654,1.6629696e-05,0.9962738,2.2053719e-06
0.9026592,0.0,4.172325e-06,6.0498714e-06,2.5331974e-06,0.003409505,0.0028953552,4.172325e-07,0.07625535,0.0008456111
5.066395e-07,7.0631504e-06,0.014908373,0.00012204051,0.00041309,0.9999921,0.009498954,0.0001437366,0.1532192,2.6583672e-05
3.2484531e-06,0.999611,3.0755997e-05,0.004514605,7.4505806e-07,0.003192544,0.00021028519,0.0,0.9788927,6.1541796e-05
9.968877e-05,2.9802322e-08,1.3053417e-05,4.094839e-05,1.4901161e-07,0.00017121434,0.013397962,4.3809414e-06,0.9998668,9.208918e-06
0.12360248,0.0,3.2782555e-07,6.1690807e-06,1.5795231e-06,0.0001475215,0.00014448166,0.9362414,0.00195691,0.00018268824
0.059793055,8.940697e-08,0.00012484193,1.4603138e-06,8.165836e-06,0.0013252199,0.0039719343,3.0100346e-06,0.9796907,0.00010198355
0.00033676624,2.1755695e-06,0.00020825863,0.027583688,4.3213367e-06,0.0011367798,0.004281014,0.00012987852,0.982394,0.008038044
4.8547983e-05,0.99937046,0.00051382184,0.009595871,6.109476e-05,0.016959727,0.0005531609,0.0,0.38830233,0.0005737841
0.99802095,0.0,1.1920929e-07,1.1920929e-07,0.0,0.0006169975,0.0007182956,2.0861626e-07,8.1300735e-05,4.976988e-06
0.00013756752,3.5762787e-07,0.0009223819,9.864569e-06,3.796816e-05,0.52049696,0.019842416,0.0026810467,0.0058044195,0.00044435263
7.1674585e-05,0.9981648,0.00017178059,0.0006906986,4.7683716e-07,0.0036225617,0.0020964146,2.682209e-07,0.039789468,0.00057315826
4.053116e-06,7.8976154e-05,0.0010614991,5.0395727e-05,9.536743e-06,0.9999926,0.016153872,1.7821789e-05,0.49289516,4.4584274e-05
0.8074837,5.9604645e-08,3.9041042e-06,4.6014786e-05,0.0,0.0026012957,0.0010873079,0.00023183227,0.50401986,0.00024157763
0.9614397,9.268522e-06,0.00035986304,4.4107437e-06,2.592802e-06,0.0037435591,0.0019289851,1.4483929e-05,0.003188908,0.020619214
4.23193e-06,0.9997566,8.225441e-06,0.0025170445,3.117323e-05,0.021521837,0.00045451522,0.0,0.06950626,0.00036466122
0.9844248,2.682209e-07,1.7285347e-06,1.6093254e-06,0.0,0.002509743,0.0013871193,1.7881393e-07,0.018409371,0.00048944354
5.2452087e-06,0.98104376,0.023853958,0.00050598383,2.0861626e-07,0.009312719,0.016754806,2.0563602e-06,0.0012833178,0.0009841025
0.9785124,0.0,1.0460615e-05,3.2782555e-07,3.2782555e-07,0.0010202229,0.0014521778,2.0861626e-05,0.0068092644,0.0005375445
2.2947788e-05,0.9994306,7.838011e-06,0.00024303794,2.0861626e-07,0.0033682287,0.00038388371,0.0,0.09121415,0.0013207793
0.99871993,0.0,2.9802322e-07,0.0,0.0,0.00024399161,0.00089386106,1.3709068e-06,2.4974346e-05,7.2717667e-06
0.0574705,3.6358833e-06,4.3302774e-05,2.9206276e-06,5.662441e-07,0.5660313,0.025621474,3.0696392e-06,0.4587989,0.0002605319
4.220009e-05,8.165836e-06,0.0014486313,0.031056166,0.8889004,0.9757452,0.02073884,0.00020369887,0.007306546,0.00038409233
0.0,4.1127205e-06,5.9604645e-08,5.7786703e-05,4.172325e-06,0.00010752678,0.035117984,0.0,0.99166405,6.970763e-05
0.0306409,8.195639e-06,3.671646e-05,1.0073185e-05,6.2584877e-07,0.0016362071,0.03213796,1.4901161e-07,0.87172836,0.015709043
0.99819803,0.0,6.2584877e-07,0.0,0.0,0.00014171004,0.00034374,1.2785196e-05,0.0001243949,1.3649464e-05
0.9937528,0.0,2.682209e-07,2.9802322e-07,0.0,0.001049608,0.00041881204,1.4036894e-05,0.0003810823,0.0008008778
4.1127205e-06,5.662441e-07,0.0044997633,6.607175e-05,0.0031445622,4.2885542e-05,0.0056919158,6.854534e-07,0.999805,0.0001245141
0.0008572042,2.115965e-06,0.0022040606,0.000119775534,1.50203705e-05,0.0011801124,0.0036946833,0.20465949,0.58093613,0.0069448054
0.15770641,0.0,8.940697e-08,2.9802322e-08,0.0,6.854534e-06,0.00039598346,0.9704623,6.020069e-06,2.4735928e-06
0.08374369,0.0,2.3841858e-07,3.7550926e-06,0.0,0.00027787685,0.0011370778,2.9802322e-08,0.9477122,5.7816505e-06
0.97376573,0.0,3.5762787e-07,2.4437904e-06,3.2782555e-07,0.0023677647,0.0016873777,4.053116e-06,0.0012587011,0.0011649728
7.122755e-06,5.9604645e-08,1.7642975e-05,0.99998426,8.434057e-06,0.0005491376,0.003952265,2.9802322e-07,0.0003466308,1.0728836e-06
8.08835e-05,2.9802322e-07,6.109476e-06,0.9999004,2.3841858e-07,0.0003989935,0.0019639432,7.748604e-07,0.00033542514,2.3841858e-06
4.798174e-06,0.0,6.28829e-06,0.9999986,2.0861626e-06,0.00010499358,0.001155138,5.9604645e-08,5.1885843e-05,5.9604645e-08
7.7068806e-05,8.940697e-08,7.7188015e-06,1.1175871e-05,1.5497208e-06,0.0008716583,0.015911818,3.695488e-06,0.99835324,0.00024238229
0.5445025,0.0,1.013279e-06,5.2154064e-06,5.9604645e-08,0.0018024147,0.0016148388,0.5400405,6.8992376e-05,0.00020393729
0.9096712,0.0,3.59118e-05,1.7881393e-07,8.940697e-08,0.0017744899,0.0020475984,0.005890757,0.0009197295,0.0153641105
0.8743039,0.0,9.328127e-06,5.751848e-06,0.0,0.0015254915,0.0011542141,0.0016540587,0.10794008,0.00023365021
0.15845954,7.748604e-07,3.695488e-06,0.2945428,2.7120113e-06,0.0051085353,0.0035699904,1.3679266e-05,0.009319067,0.00015231967
0.9881933,0.0,1.7285347e-06,1.0728836e-06,0.0,0.0037373006,0.002884239,2.7865171e-05,0.00019493699,0.0004298389
0.0072048604,2.9802322e-08,2.7954578e-05,1.2278557e-05,0.9776304,0.0015893579,0.0024774373,5.5730343e-06,0.0029386878,7.8469515e-05
0.99378,0.0,1.3053417e-05,7.1525574e-07,0.0,0.0013403594,0.0011050999,2.399087e-05,0.00021329522,2.5004148e-05
0.99698776,0.0,1.7881393e-07,1.1920929e-07,0.0,0.002007991,0.0007660091,8.940697e-07,0.00012886524,3.248453e-05
1.347065e-05,8.940697e-08,0.00035727024,3.3468008e-05,0.00024160743,0.00014898181,0.014155209,1.0102987e-05,0.9996375,4.4107437e-06
0.98771554,0.0,5.364418e-06,8.940697e-08,2.0861626e-07,0.0009881854,0.0025928915,0.00063592196,0.0001373887,0.0002619624
5.364418e-07,2.0861626e-07,4.8160553e-05,0.00015297532,2.4974346e-05,0.81657463,0.06580344,9.357929e-06,0.99113625,6.943941e-06
1.1920929e-07,4.4703484e-07,0.00038266182,8.326769e-05,0.00028252602,0.0004120767,0.0020685196,1.2218952e-06,0.006326884,0.9542234
1.7881393e-07,7.748604e-07,1.9669533e-06,0.99999917,7.748604e-07,0.00030490756,0.040608853,0.0,0.0048170686,8.940697e-08
1.2218952e-06,0.9997127,6.976724e-05,0.12583476,0.0042551756,0.0032202601,0.00019082427,0.0,0.5062741,5.9604645e-05
0.016968638,8.940697e-08,0.00019237399,3.427267e-06,0.00029870868,0.0026776493,0.01625228,2.7179718e-05,0.9738332,0.000251621
0.99053025,0.0,2.9802322e-07,8.940697e-08,0.0,0.0008304119,0.000738889,1.1920929e-07,0.018800735,1.04010105e-05
4.7683716e-07,0.0,0.0,4.172325e-07,2.0861626e-07,2.9802322e-08,8.821487e-06,0.0,4.6491623e-06,0.99996626
0.34177166,0.0,2.3841858e-06,1.2397766e-05,5.9604645e-08,0.000279814,0.00066557527,0.7514222,0.002770871,0.011002928
5.9604645e-08,4.3451786e-05,0.74636525,0.00064375997,0.00039702654,0.9999997,0.0029105544,0.00013947487,0.18024722,2.014637e-05
0.9896511,0.0,2.9802322e-08,4.4703484e-07,0.0,0.0003810227,0.0004543364,0.0,0.0035592318,1.603365e-05
1.4692545e-05,6.16014e-05,0.97748697,1.8119812e-05,0.00037801266,0.007607281,0.10327652,7.0035458e-06,0.9745677,0.00010487437
0.92960227,5.9604645e-08,1.0967255e-05,3.0398369e-06,2.9802322e-07,0.00064244866,0.0022259355,0.006749332,0.00020185113,0.0043252707
0.0,0.0044288635,4.2021275e-06,0.99997,4.1127205e-06,0.011443347,0.81184494,2.9802322e-07,0.021961063,4.708767e-06
1.3411045e-05,5.9604645e-08,0.000251621,1.1026859e-06,1.6093254e-06,1.2993813e-05,0.00024810433,0.0038614273,0.0021558106,0.97248375
0.99067134,0.0,7.0929527e-06,1.4603138e-06,2.3841858e-07,0.0011910498,0.0012188256,5.888939e-05,0.0017665029,0.00019070506
0.9372752,0.0,3.5464764e-06,9.119511e-06,9.23872e-07,0.0017306209,0.002696842,8.940697e-07,0.011051118,0.00081056356
1.0699034e-05,0.0,0.0010299981,5.787611e-05,0.0008291602,0.000110924244,0.015443563,1.1205673e-05,0.9997866,5.7131052e-05
0.04731247,0.0,6.0796738e-06,1.0281801e-05,9.089708e-06,0.00057172775,0.0018765926,1.7881393e-07,0.245657,0.2068744
0.9702138,0.0,1.7881393e-06,2.8908253e-06,6.2584877e-07,0.0029634833,0.0014086962,4.339218e-05,0.0001745522,1.129508e-05
1.013279e-06,0.58600646,0.001959741,0.9969959,4.172325e-07,0.007924557,0.05460623,2.9802322e-08,0.11900324,0.0001642406
6.3955784e-05,6.5267086e-06,0.0007790923,0.0004851818,1.9967556e-06,0.9998978,0.01275751,0.003571391,0.004206896,0.00015729666
5.7816505e-06,2.8461218e-05,0.34593898,0.9989973,0.003653884,0.003265053,0.013862461,2.1457672e-06,0.17541024,0.00034576654
0.96241194,0.0,2.503395e-06,2.3245811e-06,4.7683716e-07,0.003756076,0.0054323673,3.874302e-07,0.013290614,0.0016676486
1.32620335e-05,0.0,8.34465e-07,0.9999925,1.2218952e-06,0.0002925098,0.0019453764,1.1920929e-07,0.0002706647,1.5795231e-06
0.99028915,0.0,5.9604645e-08,6.2584877e-07,0.0,0.00038960576,0.0007984936,7.906556e-05,0.00022932887,7.390976e-06
4.798174e-06,1.7881393e-07,0.0008648634,0.99311316,0.992608,0.0009852052,0.006425917,2.9802322e-08,0.008461475,1.4603138e-06
2.9802322e-08,0.9960365,4.529953e-06,0.41274455,0.0,0.0001783371,0.00043666363,0.0,0.99886453,1.3113022e-06
0.981785,0.0,1.8179417e-06,8.940697e-07,1.4901161e-07,0.0033795834,0.005119562,4.7683716e-07,0.00020444393,0.00024962425
0.0,2.9802322e-05,0.98222435,0.0002771914,2.8282404e-05,0.0004517734,0.002460003,1.1026859e-06,0.9953015,1.2040138e-05
0.952709,5.9604645e-08,0.0036243498,1.4901161e-07,3.2186508e-06,0.0020056665,0.0033825338,3.2812357e-05,0.00059607625,0.00896132
8.34465e-07,1.2516975e-06,1.8894672e-05,1.4513731e-05,1.4603138e-06,0.98675555,0.02042982,2.682209e-06,0.93634844,0.00011757016
8.6426735e-06,0.0014252961,0.046432853,0.0041902363,0.00059112906,0.99961734,0.025434643,0.000590235,0.08019659,9.7453594e-05
3.1888485e-06,3.993511e-06,0.00034061074,0.99996996,5.9515238e-05,0.0019482076,0.08659169,1.9669533e-06,0.0019812584,8.940697e-06
1.385808e-05,0.0,2.6226044e-06,2.592802e-06,6.854534e-07,3.799796e-05,0.00056800246,0.99881506,0.0007031858,0.00023910403
0.9903977,0.0,1.3709068e-06,1.7881393e-07,6.854534e-07,0.0005761385,0.0011128783,4.4703484e-07,0.0013265312,0.00026342273
0.99436426,0.0,3.5762787e-07,2.0861626e-07,0.0,0.0015080571,0.00039112568,2.220273e-05,0.00024169683,0.0002770126
0.9986619,0.0,6.2584877e-07,2.9802322e-08,0.0,0.00036090612,0.0008883476,1.1920929e-07,5.465746e-05,9.724498e-05
0.12344667,0.0,5.662441e-07,0.00011894107,0.0,0.003590852,0.0010055602,4.8846006e-05,0.91161096,0.0014194548
0.35738304,8.934736e-05,4.440546e-06,3.257394e-05,2.3841858e-07,0.0010133684,0.00084993243,1.4901161e-07,0.25075215,0.0049572885
4.4703484e-07,0.0,0.0,4.172325e-07,2.0861626e-07,2.9802322e-08,8.761883e-06,0.0,4.6491623e-06,0.99996626
0.00026273727,1.013279e-05,0.0401375,8.85427e-05,3.7252903e-06,0.00076296926,0.002471596,1.4305115e-06,0.24932435,0.9472978
6.28829e-06,0.93776894,0.049408764,0.0053652227,0.00015211105,0.0028651059,0.0045308173,0.00011509657,0.0045075417,0.11930171
0.002519101,0.0,2.6017427e-05,5.0365925e-06,1.3232231e-05,0.0010660291,0.0071605444,1.4901161e-06,0.9939959,0.00022035837
0.94227844,0.0,0.00010547042,5.066395e-07,2.0861626e-07,0.0027731955,0.0012695789,7.212162e-06,0.011512786,0.015802324
6.377697e-06,0.9992076,0.0003965497,0.0037539303,3.0249357e-05,0.038996756,0.0026207864,1.1324883e-06,0.25558627,0.00023964047
0.00023025274,8.940697e-08,2.9444695e-05,2.3543835e-06,5.9604645e-08,0.00014799833,0.006577611,6.2584877e-07,0.99957,4.8577785e-05
0.0035382807,6.2584877e-06,9.864569e-06,5.6922436e-06,6.556511e-06,0.019782484,0.9084472,2.798438e-05,0.0021874607,0.0015716851
0.9422489,0.0,1.1920929e-07,1.1920929e-07,0.0,0.0002847314,0.00030887127,0.0,0.10836068,8.547306e-05
2.9802322e-07,0.99906325,0.00016602874,0.87904346,8.127093e-05,0.0030126572,0.000875473,0.0,0.017478466,7.390976e-05
5.9604645e-08,1.5795231e-06,0.00028806925,0.9999857,0.010491669,0.00023299456,0.0053008795,2.0861626e-06,0.0008829236,2.7149916e-05
0.12211275,3.5762787e-07,2.2411346e-05,0.4070148,0.0003655553,0.0036885142,0.0044786334,3.2782555e-07,0.012740672,0.000500381
0.82920724,8.6426735e-07,2.1219254e-05,3.5762787e-07,0.0,0.00043562055,0.0016998947,1.7881393e-07,0.2624843,0.005286485
0.02288279,1.013279e-06,0.07514593,1.0639429e-05,2.9206276e-06,0.0009773076,0.008872509,1.591444e-05,0.91998446,7.387996e-05
2.592802e-06,0.0,5.1259995e-06,1.3053417e-05,3.874302e-07,0.00012245774,0.0036419928,1.0728836e-06,0.9999449,7.748604e-07
0.08280018,2.9802322e-07,2.5957823e-05,1.0430813e-05,0.0,0.00078073144,0.0048763156,1.5586615e-05,0.9286703,0.0005777776
0.8583346,0.0,5.066395e-07,2.3245811e-06,0.0,0.0004542768,0.0009507835,2.4318695e-05,0.19449249,6.5863132e-06
0.9874474,2.9802322e-08,6.467104e-06,1.0311604e-05,0.0,0.0014874637,0.0028523207,4.917383e-06,0.0010696352,0.00021004677
0.9990819,0.0,2.682209e-07,8.940697e-08,0.0,0.00042575598,0.0007208288,2.2649765e-06,2.1368265e-05,1.4066696e-05
4.172325e-07,1.1920929e-07,6.2584877e-07,0.99999654,4.4703484e-07,0.0021964908,0.021075934,5.9604645e-07,0.00014770031,2.9802322e-08
0.073773205,2.0861626e-07,5.2452087e-06,5.841255e-06,0.0,0.0011148453,0.0051441193,8.940697e-08,0.9655711,0.0001219511
0.9804699,0.0,1.6391277e-06,3.5762787e-07,0.0,0.00028982759,0.00094124675,0.00018209219,0.003379047,8.97944e-05
0.99730337,0.0,5.662441e-07,2.9802322e-08,0.0,0.0007240176,0.0012253523,3.7550926e-06,1.4156103e-05,0.00042921305
0.003248334,5.9604645e-08,0.00013020635,3.9041042e-06,2.8908253e-06,0.00092819333,0.015347689,1.2218952e-06,0.98832965,0.00039708614
0.98985577,0.0,1.0251999e-05,5.841255e-06,2.9802322e-08,0.0040616095,0.0013718903,1.1861324e-05,0.0026908517,6.979704e-05
0.63540417,2.9802322e-08,4.8607588e-05,3.874302e-06,5.2154064e-06,0.0023741722,0.0073613226,1.4901161e-06,0.31027067,0.0009161234
0.0053429604,0.78595054,0.0018135607,0.00025889277,3.2782555e-07,0.0146841705,0.018932164,2.3841858e-06,0.0060626864,0.00548175
0.008063704,7.778406e-06,2.0861626e-07,8.0645084e-05,8.940697e-08,0.0028402507,0.9894521,6.479025e-05,2.682209e-05,0.00042000413
0.00867036,8.869171e-05,0.0006251931,0.00045496225,4.9620867e-05,0.9785501,0.07612082,0.00013768673,0.3678543,0.004270017
5.155802e-06,0.0,0.0003196001,0.00041997433,5.662441e-07,0.0017846227,0.014538914,0.0,0.9991731,1.5854836e-05
0.8019552,5.543232e-06,0.0004106462,1.2814999e-06,2.9802322e-08,0.0002411902,0.00047251582,1.2218952e-06,8.675456e-05,0.33059412
2.771616e-06,2.9802322e-08,7.331371e-05,0.00039684772,0.84666777,0.0002616346,0.010398358,1.1920929e-07,0.97083926,3.772974e-05
5.751848e-06,0.9849385,0.0062888265,0.03899336,5.5462122e-05,0.014208555,0.056444854,4.172325e-07,0.21150252,0.00053554773
2.1457672e-06,0.0,1.3291836e-05,0.99998784,7.390976e-06,0.0002796054,0.002247095,8.940697e-08,0.00038310885,2.682209e-06
0.9977201,0.0,8.940697e-08,0.0,0.0,0.00034961104,0.0008417368,1.7762184e-05,4.6789646e-06,1.9580126e-05
0.1560095,1.1920929e-07,7.146597e-05,1.2457371e-05,8.940697e-07,0.00053718686,0.0007209778,0.78786623,2.142787e-05,0.0023852289
0.006826848,4.7683716e-07,1.8298626e-05,3.8206577e-05,0.0,0.99942505,0.00069892406,5.364418e-07,0.01594451,3.4570694e-06
2.9802322e-08,0.0,5.364418e-07,1.7881393e-07,0.0,5.9604645e-08,9.953976e-06,0.0,2.9802322e-07,0.99999845
1.1920929e-07,0.989422,0.0012263358,0.0038095117,5.9604645e-08,0.00033271313,0.00087693334,0.0,0.99973655,3.5762787e-07
0.0,2.208352e-05,0.0004480183,0.9999869,0.002084583,0.002835542,0.2037276,4.827976e-06,0.0032494366,1.9967556e-06
0.0087336,8.940697e-08,7.662177e-05,1.603365e-05,1.3113022e-06,0.00071683526,0.009076387,5.0216913e-05,0.98290515,0.00027266145
0.0,1.013279e-06,1.4901161e-07,6.464124e-05,3.2782555e-07,0.00010317564,0.58972716,5.9604645e-07,0.99965227,3.6388636e-05
0.97918296,2.9802322e-08,2.0861626e-05,2.682209e-07,3.0100346e-06,0.00097349286,0.0017676651,2.1755695e-06,0.00090792775,0.001826942
0.72700113,0.0,2.861023e-06,2.2649765e-06,8.940697e-08,0.00088632107,0.0021187067,6.189942e-05,0.57615465,2.4050474e-05
0.00011792779,2.9802322e-08,6.0796738e-06,3.7044287e-05,4.094839e-05,0.00023317337,0.0135091245,2.0861626e-07,0.99936724,1.7940998e-05
0.00021609664,0.041651815,0.0004502535,0.019081622,0.0010242462,0.15533802,0.7045697,1.2665987e-05,0.010396987,0.03540036
0.9946952,0.0,2.2053719e-06,1.5497208e-06,8.940697e-08,0.003096491,0.0023770034,2.3841858e-07,0.00048473477,0.00019302964
0.9948761,0.0,2.3841858e-07,2.0861626e-07,5.9604645e-08,0.002009809,0.0018203557,3.427267e-06,0.00013956428,0.0003081262
0.00017997622,2.9802322e-07,1.66893e-05,0.00021147728,7.7188015e-06,0.00042828918,0.004543811,2.026558e-05,0.0024016798,0.9893081
0.82906616,3.2782555e-07,4.351139e-06,5.066395e-07,0.0,0.01246357,0.08184916,1.2010336e-05,0.00043323636,0.000116318464
0.00016185641,0.9714209,0.041599303,0.00044041872,1.0728836e-06,0.007651031,0.035515904,1.66893e-06,0.02087742,0.003913194
0.0,1.1920929e-07,4.7683716e-07,0.9999988,0.46756724,6.312132e-05,0.0011829436,2.9802322e-08,0.00049862266,8.940697e-08
7.56979e-06,5.066395e-07,1.1920929e-07,2.115965e-06,5.8710575e-06,0.0016545951,0.99967206,0.0,6.651878e-05,1.7881393e-05
0.99086535,0.0,1.7881393e-07,3.2782555e-07,0.0,0.00019088387,0.000824064,0.0003978014,8.2433224e-05,1.2814999e-05
1.1920929e-07,1.7881393e-07,0.99358726,3.6358833e-06,8.374453e-06,0.000101327896,0.007899523,3.516674e-05,0.9956161,2.9802322e-07
1.7881393e-07,0.00011664629,0.0004082322,0.0034443438,0.00019297004,0.99999833,0.022349209,2.965331e-05,0.03136456,0.00019225478
0.9935019,0.0,7.748604e-07,3.874302e-07,2.9802322e-08,0.0006237626,0.0011357665,5.9604645e-08,0.0014772713,0.0004762113
7.233024e-05,9.864569e-05,0.0076714754,0.00013923645,2.2560358e-05,0.9989902,0.06004241,0.0075146556,0.0037455857,0.0019480288
7.143617e-05,0.0,3.5703182e-05,4.634261e-05,0.0,8.1419945e-05,0.0023246408,0.00061252713,0.99990755,2.6524067e-06
2.9802322e-08,1.4483929e-05,0.00012373924,0.00081157684,6.106496e-05,0.1483722,0.77025944,4.142523e-06,0.55095303,0.0021594763
3.4868717e-06,0.97938025,0.0043171346,0.9370182,6.380677e-05,0.014953405,0.01560691,8.940697e-08,0.4445251,0.0013057292
2.8908253e-06,2.95043e-06,0.00024831295,0.00011757016,9.119511e-06,0.99999964,0.004613608,1.1175871e-05,0.098153025,1.847744e-06
0.309905,1.5854836e-05,0.000367105,5.662441e-07,3.874302e-07,0.00023844838,0.0015498698,5.9604645e-08,0.00041764975,0.7109396
0.67528236,1.1920929e-07,3.5762787e-07,8.672476e-06,2.9802322e-08,0.0010778904,0.0033623278,0.0,0.7246745,8.523464e-05
0.815512,5.9604645e-08,2.503395e-06,1.9073486e-06,0.0,0.00057438016,0.0009863079,0.00022524595,0.5626435,1.9222498e-05
1.1920929e-07,3.0636787e-05,0.0042470694,0.0015018284,0.00014665723,0.99751914,0.010156572,4.23193e-06,0.06815061,0.00079780817
3.5762787e-07,1.21593475e-05,0.91915643,3.2007694e-05,0.0,6.234646e-05,0.001933217,2.026558e-06,0.9996276,2.3841858e-06
0.06549713,0.00013378263,0.0017760098,0.00012305379,0.002169937,0.0009203255,0.00517866,3.874302e-07,0.40506133,0.007421136
2.732873e-05,1.7374754e-05,0.0024983585,4.9740076e-05,1.8328428e-05,0.9425093,0.009644955,1.2218952e-06,0.9691329,0.0009866059
0.8592357,0.0,6.198883e-06,2.0861626e-05,3.5762787e-07,0.0014374852,0.001861155,0.00033193827,0.02559349,0.004079312
0.872122,8.940697e-08,5.1677227e-05,2.3543835e-06,3.2782555e-07,0.0022472441,0.0021851063,2.1755695e-06,0.05027443,0.010056257
0.00016543269,2.503395e-06,0.00061160326,4.1753054e-05,2.9534101e-05,0.9271213,0.030428559,0.0011759102,0.0035883188,0.02977851
2.9802322e-07,2.0861626e-06,0.9950172,5.2303076e-05,1.0937452e-05,0.0004749298,0.036548704,2.1457672e-06,0.9977628,5.364418e-07
5.662441e-07,4.2885542e-05,0.46043214,4.3272972e-05,3.668666e-05,0.27056924,0.17253625,0.00014093518,0.985368,9.343028e-05
2.3841858e-07,0.00025457144,1.1056662e-05,0.985252,0.015518129,0.00069466233,0.9255953,4.4703484e-07,0.38920048,0.00020614266
0.5912972,1.5109777e-05,6.145239e-05,0.0036594272,0.045889914,0.030806154,0.022803217,1.9043684e-05,0.013855755,0.0041309
0.003509134,8.940697e-08,0.9872758,4.4703484e-07,8.395314e-05,0.0004682839,0.0051003695,8.609891e-05,7.143617e-05,0.000109016895
0.07115236,8.940697e-08,2.2649765e-06,1.2665987e-05,0.0,0.00030645728,0.0014382005,1.1920929e-07,0.97262335,0.00024294853
2.7120113e-06,0.03821382,0.09959552,0.9998985,0.006353736,0.0033435822,0.00808081,1.4901161e-07,0.00549376,7.987022e-06
0.998065,0.0,5.066395e-07,0.0,0.0,0.00042280555,0.0012610257,1.7881393e-07,4.3302774e-05,2.95043e-06
0.002953738,2.3841858e-07,2.3841858e-06,6.2584877e-06,1.013279e-06,0.014168143,0.9387749,1.2218952e-06,0.003283739,0.00046017766
2.6404858e-05,0.0,4.3809414e-06,0.00012758374,0.0001911521,4.0382147e-05,0.0018585622,0.0,0.99992234,1.4305115e-06
1.40070915e-05,0.0,3.9339066e-06,0.99999106,2.9802322e-08,0.00017336011,0.0010443032,8.940697e-08,1.2814999e-05,3.5762787e-07
0.9924003,0.0,5.364418e-07,4.172325e-07,2.3841858e-07,0.0013258457,0.002004534,1.7404556e-05,0.00022625923,2.002716e-05
0.50332266,1.3113022e-06,0.000114262104,0.15867764,1.8715858e-05,0.009521931,0.0015161335,8.606911e-05,0.002851367,0.023036957
0.0016923249,0.0,9.23872e-07,1.7881393e-07,0.00025859475,4.1007996e-05,0.0016753376,2.9802322e-08,0.9971484,2.682209e-07
9.176135e-05,4.351139e-06,0.0003926158,3.1292439e-06,6.9737434e-06,0.9999968,0.01172474,2.5302172e-05,0.07004857,9.9778175e-05
0.92347896,9.030104e-06,5.096197e-06,0.00013890862,1.6093254e-06,0.0031251013,0.011419624,2.592802e-06,0.00014275312,0.0010589957
1.9073486e-06,0.0,0.00026077032,0.9999132,3.6358833e-06,0.00016206503,0.0018082261,8.940697e-08,1.7881393e-05,2.3841858e-07
0.9881121,5.066395e-07,3.85046e-05,3.2782555e-07,2.9802322e-08,0.0005683899,0.00093367696,1.8775463e-06,0.000495255,0.011000603
2.8163195e-05,0.0,4.4703484e-07,2.3841858e-07,2.9802322e-08,0.00011432171,0.00217852,0.9999442,1.5705824e-05,0.00016343594
0.00025945902,7.4505806e-06,5.4895878e-05,4.3213367e-06,2.9802322e-07,0.0067275167,0.93712914,5.155802e-06,0.23230559,0.0005995035
0.00010085106,0.0,9.447336e-06,9.23872e-07,2.9802322e-08,1.7225742e-05,0.0017773807,8.940697e-08,0.99992096,6.2584877e-07
0.9933591,0.0,1.0430813e-06,1.1920929e-07,5.9604645e-08,0.0011969209,0.0012047887,1.013279e-06,0.000102728605,9.846687e-05
0.012283087,5.662441e-07,7.918477e-05,1.0371208e-05,6.2584877e-07,0.0012388527,0.0047602355,7.1525574e-07,0.96130645,0.023573011
0.9587992,0.0,4.798174e-06,0.0,0.0,0.102947146,0.0005352795,7.748604e-07,8.5264444e-05,8.8483095e-05
6.735325e-06,0.0,1.1920929e-07,0.9999914,4.5001507e-06,0.00047942996,0.00048419833,0.0,0.00029605627,3.5762787e-07
0.90479994,2.0861626e-07,0.00059363246,1.6093254e-06,2.026558e-06,0.0015504956,0.0022867918,4.8577785e-06,0.049699068,0.01786676
2.4974346e-05,0.2616173,0.16739714,0.00085031986,3.7938356e-05,0.046551168,0.19968566,0.00012061,0.061582685,0.021530539
0.9970938,0.0,2.3841858e-07,4.172325e-07,0.0,0.00088500977,0.0014989674,1.013279e-06,0.0006554723,2.5212765e-05
0.97001565,0.0,2.2649765e-06,2.861023e-06,2.8908253e-06,0.0013169944,0.0013233125,0.00017666817,0.00085297227,0.0003913045
4.827976e-06,4.094839e-05,0.0002143681,0.99995506,0.00030237436,0.13297334,0.044941783,5.9604645e-07,0.0009762943,1.9967556e-06
0.9956924,0.0,8.940697e-08,8.940697e-08,0.0,0.00029224157,0.00055992603,0.0,0.0010362864,6.386638e-05
9.23872e-07,1.2308359e-05,0.00063854456,0.00029870868,0.00013917685,0.9996103,0.0070566237,0.0013201535,0.050572813,0.0027077496
4.7683716e-07,0.99797434,0.00019523501,0.0012151897,8.6426735e-07,0.00059232116,0.0003913939,0.0,0.9977581,5.930662e-06
0.9947482,0.0,8.940697e-07,6.556511e-07,0.0,0.0016331971,0.0014474988,8.940697e-08,0.0015853643,9.569526e-05
0.9946407,0.0,7.4505806e-07,3.2782555e-06,8.940697e-08,0.0021493733,0.0010898113,3.0994415e-06,0.0004801154,7.587671e-05
0.015375286,7.1525574e-07,4.708767e-06,2.8312206e-06,5.364418e-07,0.0046202242,0.89329493,4.172325e-07,8.717179e-05,0.000113129616
0.006539196,0.0,5.364418e-07,1.8179417e-06,0.0,0.00011155009,0.0007943511,0.9993745,9.328127e-06,1.2367964e-05
0.00012743473,3.787875e-05,4.157424e-05,6.3955784e-05,4.4107437e-06,0.99892944,0.051282346,2.5868416e-05,0.0137960315,0.0011122823
6.2286854e-06,0.9834724,0.0011573434,0.0029453933,3.07858e-05,0.90659666,0.0059738457,8.34465e-07,0.61253315,0.00020888448
0.9963726,0.0,1.013279e-06,5.9604645e-08,0.0,0.0009755492,0.0012729466,1.7881393e-07,0.00018042326,0.0007838011
1.9669533e-06,0.0,3.8146973e-06,0.006263852,2.413988e-06,7.1555376e-05,0.0037757158,7.748604e-07,0.9999683,5.9604645e-08
0.9945837,0.0,5.9604645e-08,5.364418e-07,0.0,0.0007584095,0.0008324981,3.3080578e-06,0.0003798604,0.00018724799
1.1920929e-07,0.0,2.1457672e-06,0.99999976,0.0021881163,0.00024244189,0.0010697544,0.0,0.00010663271,0.0
0.0017844439,0.00010073185,6.80089e-05,3.835559e-05,8.940697e-08,0.9959457,0.080957115,7.4505806e-07,0.007867157,0.00014027953
0.98100114,0.0,4.172325e-07,5.9604645e-08,0.0,0.00014740229,0.00074481964,0.0014134049,2.7507544e-05,4.87864e-05
3.2782555e-06,5.9336424e-05,2.1457672e-05,1.2040138e-05,2.2351742e-06,0.00087830424,0.935156,4.172325e-06,0.968233,0.0028737187
0.79076624,0.0,7.4476004e-05,4.440546e-06,5.6028366e-06,0.002608478,0.0014388561,1.7911196e-05,0.015617728,0.06829074
0.99556255,0.0,1.1920929e-06,5.364418e-07,5.9604645e-08,0.0026480556,0.0018599033,1.8775463e-06,0.00041043758,0.00026077032
0.9920877,0.0,5.066395e-07,0.0,5.9604645e-08,0.00070884824,0.0016194582,8.958578e-05,0.00029441714,1.7911196e-05
0.016998857,0.0,2.7120113e-06,1.0460615e-05,5.9604645e-08,0.00066527724,0.0045880675,1.3411045e-06,0.99409497,2.336502e-05
0.013438046,8.940697e-08,4.887581e-05,1.3738871e-05,4.7683716e-07,0.0014037192,0.003135413,4.3809414e-06,0.985163,0.001113683
0.0022873282,4.172325e-07,0.0015935898,4.6283007e-05,5.733967e-05,0.00029614568,0.002390772,6.943941e-06,0.3366416,0.62495506
0.23025668,2.9802322e-08,1.579523e-05,2.6524067e-06,1.1920929e-07,0.0032774508,0.006216407,3.33786e-06,0.63691723,0.000577122
6.556511e-07,0.0,5.811453e-06,0.99999905,3.0994415e-06,0.00019454956,0.0012570322,5.364418e-07,8.562207e-05,8.940697e-08
4.3541193e-05,8.940697e-07,0.00018659234,3.7819147e-05,5.6922436e-06,0.0053292215,0.008423865,0.00011467934,0.98157865,0.0033631325
2.0861626e-07,4.529953e-06,0.006026,0.9999933,0.00019401312,0.00045710802,0.0047190785,0.0,0.023828268,3.2782555e-07
1.013279e-06,0.0,2.9802322e-07,0.9999994,2.682209e-06,0.0003503859,0.0013226867,1.1920929e-07,1.2755394e-05,8.940697e-08
0.9975084,0.0,1.7881393e-07,0.0,0.0,0.000274688,0.0005734861,2.8759241e-05,0.00018700957,1.4811754e-05
0.010651022,0.0,2.2172928e-05,1.5377998e-05,0.063598126,0.003439635,0.0013816655,1.5318394e-05,0.92344755,3.9190054e-05
0.0,3.9845705e-05,1.8447638e-05,0.9988567,0.99602675,0.0013126135,0.90531003,8.940697e-08,0.015305936,5.364418e-07
0.997296,0.0,9.23872e-07,3.5762787e-07,0.0,0.0012516975,0.0014644265,8.046627e-06,2.4497509e-05,1.2755394e-05
0.00034046173,2.2053719e-06,0.00011870265,4.7832727e-05,2.95043e-06,0.0005559325,0.0046007037,3.5762787e-07,0.99958885,9.906292e-05
8.636713e-05,1.4901161e-07,0.0014056563,0.0017435253,7.9870224e-05,0.00039887428,0.004264176,6.8843365e-06,0.999043,3.373623e-05
1.5199184e-06,0.0,8.7320805e-06,1.5109777e-05,2.592802e-06,0.0004299581,0.01510933,1.1026859e-06,0.9999533,7.480383e-06
0.00018388033,0.98845255,0.008503288,0.0014111102,3.695488e-06,0.0081242025,0.012930989,4.7683716e-07,0.8860593,0.0019859374
2.7507544e-05,1.6868114e-05,8.314848e-06,0.9993863,0.032906234,0.055037558,0.003029853,2.1547079e-05,0.00071042776,0.00013443828
2.2351742e-06,1.2040138e-05,0.9800945,1.7553568e-05,3.156066e-05,0.9996449,0.020311236,2.0831823e-05,0.00286901,8.940697e-07
0.06956962,2.95043e-06,0.0005379915,1.8417835e-05,2.3841858e-07,0.86769485,0.0010545254,0.00025829673,0.0013051629,0.0004067123
1.847744e-06,6.92904e-05,0.012339324,5.0634146e-05,2.5570393e-05,0.99999774,0.014631778,1.1950731e-05,0.006204039,4.917383e-06
0.9929332,0.0,2.5331974e-06,1.7881393e-07,0.0,0.0005488992,0.0009790957,1.4722347e-05,0.00038185716,7.6293945e-06
4.3213367e-06,0.0,4.7683716e-07,2.4914742e-05,2.9802322e-08,0.00012937188,0.0022250712,5.543232e-06,0.9999719,2.0861626e-07
0.0001912415,0.0,7.7962875e-05,1.4007092e-06,0.0,0.00014933944,0.0057109296,1.66893e-06,0.9997802,1.7881393e-07
0.00044453144,0.0,2.965331e-05,2.115965e-06,2.3841858e-07,0.00014153123,0.002634257,0.00011819601,0.997813,0.00039625168
0.75097024,0.0,1.2218952e-06,1.758337e-05,0.0,0.0025037527,0.0013852715,1.847744e-06,0.8400564,3.0070543e-05
9.387732e-06,1.1920929e-07,8.136034e-06,1.2755394e-05,8.940697e-08,7.176399e-05,0.0055888295,0.0,0.99997807,8.314848e-06
0.00069367886,0.8521267,0.030151129,0.0015599132,6.3955784e-05,0.015067965,0.08136925,5.751848e-06,0.1436773,0.15787485
2.8014183e-06,5.185604e-06,0.031077594,0.9999471,0.005637467,0.00091686845,0.004934132,1.1920929e-07,0.065172404,4.4703484e-07
0.9912944,0.0,4.4703484e-07,4.4703484e-07,0.0,0.0009635091,0.0010665655,7.1525574e-07,0.0058639646,1.30832195e-05
0.0023502707,2.0861626e-07,6.610155e-05,2.1964312e-05,1.1920929e-07,0.00030055642,0.00136289,6.2286854e-06,0.9958853,8.791685e-05
0.11213249,1.1920929e-07,4.196167e-05,0.0002168715,2.0116568e-05,0.00243932,0.0051056445,1.3530254e-05,0.79658675,0.0001026988
4.7683716e-07,0.0005477369,0.03798893,0.0008776784,3.4689903e-05,0.0052227974,0.025399059,3.993511e-06,0.99928635,0.00041532516
0.39481592,0.00016331673,0.12111321,7.778406e-06,3.5762787e-07,0.0036336482,0.07494265,0.001840502,0.00309968,0.022805452
0.8042822,1.7881393e-07,1.0758638e-05,5.066395e-07,1.23381615e-05,0.00043964386,0.0025379956,2.0861626e-07,0.00013193488,0.45587513
0.9936781,0.0,3.2782555e-07,1.013279e-06,8.940697e-08,0.0013922751,0.0010855794,2.8014183e-06,0.00017899275,1.4781952e-05
0.97932327,0.0,8.6426735e-07,5.6922436e-06,0.0,0.0024454296,0.00071287155,5.1945448e-05,0.0013782382,0.013209611
0.98217684,0.0,6.2286854e-06,8.940697e-08,0.0,0.0009970069,0.0012883842,0.00051921606,0.0013303161,0.0004515946
5.8680773e-05,0.026703656,0.7477904,3.6358833e-06,1.04010105e-05,0.013658494,0.14594051,2.425909e-05,0.0033913255,0.0020032823
0.0024027824,2.9802322e-08,0.018177122,5.990267e-06,6.854534e-07,0.0009784997,0.013767004,0.00014346838,0.99006486,7.2956085e-05
4.708767e-06,0.9967777,0.008845925,0.12736255,2.5898218e-05,0.012208253,0.0020541847,1.6391277e-06,0.5480586,0.00031137466
0.9617908,0.0,2.0563602e-06,2.5331974e-06,3.5762787e-06,0.001342833,0.0017656088,1.7881393e-07,0.006705731,5.5372715e-05
0.9481114,0.0,1.1026859e-06,9.924173e-06,3.874302e-07,0.0017752647,0.0011443496,2.682209e-07,0.036470085,0.00055095553
0.0,0.0012800395,0.2780277,0.9999532,0.004924983,0.0039217174,0.15095097,2.9802322e-08,0.0034091175,3.874302e-07
2.3245811e-06,0.9963778,0.004513979,0.0016153157,2.7418137e-06,0.022214383,0.006549388,2.8312206e-06,0.501519,0.00031408668
3.71933e-05,0.0,1.1742115e-05,1.1920929e-06,1.4901161e-07,2.4795532e-05,0.0017960966,8.940697e-08,0.9999349,1.8179417e-06
0.99065316,5.9604645e-08,4.7683716e-07,2.3841858e-07,0.0,0.0018926263,0.015604436,2.9802322e-07,0.00043338537,0.00025081635
2.0623207e-05,3.5762787e-07,0.00022733212,0.0026441813,0.0001334846,0.00047388673,0.017443836,5.543232e-06,0.9993404,0.00011178851
3.0100346e-06,0.0,3.5971403e-05,6.0796738e-06,0.3380937,2.2500753e-05,0.011998773,3.874302e-07,0.9995523,9.23872e-07
0.9972064,0.0,1.1920929e-07,0.0,5.9604645e-08,0.00052031875,0.0007598996,1.32620335e-05,0.00041088462,4.1246414e-05
2.0861626e-07,2.115965e-06,0.0014607012,9.506941e-06,2.104044e-05,0.9997412,0.012455881,5.2452087e-06,0.8862703,0.0016992092
5.9604645e-08,0.5991128,0.13176462,0.034941316,0.00031659007,0.999485,0.0023156703,2.6226044e-06,0.8640829,7.301569e-06
0.004642755,1.1920929e-07,2.503395e-06,0.994882,3.5762787e-07,0.001914084,0.00198102,9.4771385e-06,2.631545e-05,1.8686056e-05
0.9977873,0.0,5.9604645e-08,4.7683716e-07,0.0,0.00034734607,0.000638783,1.2308359e-05,0.00013500452,1.1950731e-05
0.014054894,2.0861626e-07,3.629923e-05,1.2814999e-06,2.9802322e-08,3.7670135e-05,0.0015403032,0.93485475,0.015308768,0.001332432
0.05735421,0.000292629,0.71891254,2.2232533e-05,3.1888485e-06,0.0034807026,0.0038492382,0.00014182925,0.19193897,0.0013259947
0.9233886,0.0,1.1920929e-07,5.662441e-07,5.9604645e-08,0.00020065904,0.00024929643,0.0335097,5.1021576e-05,0.000230968
0.99722624,0.0,2.3841858e-07,1.4901161e-07,0.0,0.0007456243,0.001182735,1.4007092e-06,0.00010499358,0.00016719103
1.1920929e-07,0.0033384264,0.0014589727,0.99934465,0.00019186735,0.0016956031,0.49381518,2.0861626e-07,0.48782796,0.00047397614
0.98742974,0.0,8.314848e-06,2.9802322e-07,2.9802322e-07,0.0012499988,0.005275488,0.000104516745,4.029274e-05,4.4077635e-05
0.016037375,0.0,0.0005611479,3.5762787e-06,1.1622906e-06,0.0022811592,0.0033337772,0.00024977326,0.98887247,0.0001527369
0.00035625696,2.503395e-06,7.4505806e-07,1.0430813e-06,8.016825e-06,0.0016043186,0.9779923,1.7881393e-07,0.10440579,0.001873523
0.0,7.748604e-07,3.4838915e-05,0.9999989,0.00050598383,0.00024464726,0.022674918,6.556511e-07,0.0007606447,1.9073486e-06
0.9937296,0.0,2.3841858e-06,5.9604645e-08,8.940697e-08,0.001263082,0.0010995269,2.9802322e-06,0.00015446544,2.5123358e-05
0.9980412,0.0,5.9604645e-08,1.4901161e-07,0.0,0.0006520748,0.0010730028,1.4901161e-07,9.036064e-05,5.00381e-05
9.775162e-06,8.672476e-05,0.00052562356,0.0002849102,0.00020721555,0.99790865,0.05918798,5.9604645e-06,0.0056264997,0.010387629
3.2782555e-07,0.0,3.8713217e-05,2.503395e-06,9.23872e-07,6.514788e-05,0.0029359162,0.00020125508,0.99875975,0.0009253025
8.940697e-08,5.9604645e-08,1.9669533e-06,1.5825033e-05,8.940697e-08,5.1409006e-05,0.414738,7.748604e-07,0.9999517,1.3530254e-05
0.0006009042,5.9604645e-08,4.261732e-06,7.95722e-06,2.3841858e-07,0.0012049675,0.003482759,1.1920929e-07,0.9990723,4.824996e-05
2.1755695e-06,1.9580126e-05,0.9831655,1.14142895e-05,0.0002863407,0.0042589307,0.12404701,3.7550926e-06,0.34990117,0.0003298521
0.986183,0.0,7.748604e-07,5.185604e-06,0.0,0.00059747696,0.00097611547,6.914139e-06,0.0009472966,0.00035512447
4.4703484e-07,0.0,0.0,4.172325e-07,2.0861626e-07,2.9802322e-08,8.761883e-06,0.0,4.6491623e-06,0.99996626
0.002565056,8.940697e-08,0.00095179677,4.61936e-06,0.99542975,0.00010111928,0.0016058385,8.046627e-07,5.0663948e-05,0.00033599138
0.9896704,2.9802322e-08,1.14142895e-05,1.1920929e-07,0.0,0.002452761,0.0024785101,6.2584877e-07,0.001354456,0.00093978643
0.077426106,9.223819e-05,0.001524508,0.00036859512,8.144975e-05,0.0054386556,0.009884268,0.0003142953,0.060140103,0.41345674
0.98903024,5.9604645e-08,1.7881393e-06,4.529953e-06,0.0,0.0022144914,0.0014259815,3.5762787e-07,0.0058456063,0.00012689829
2.9802322e-08,0.0,3.4928322e-05,2.0861626e-07,0.0,2.0861626e-07,1.719594e-05,0.0,2.682209e-07,0.9999751
0.00061416626,2.9802322e-08,0.00019353628,9.0152025e-05,2.4735928e-06,0.00061684847,0.004352361,0.00050744414,0.98965853,0.00045517087
0.25382712,1.1920929e-07,2.092123e-05,0.010049313,3.9041042e-06,0.0075462162,0.00479275,5.662441e-07,0.33128232,0.009030938
0.99465775,0.0,1.1026859e-06,5.9604645e-08,5.9604645e-08,0.00050225854,0.0007920861,8.940697e-08,0.00020593405,8.6814165e-05
6.7055225e-06,1.2367964e-05,2.3841858e-06,4.0233135e-06,1.0430813e-05,0.009265125,0.9987658,2.1457672e-06,0.0018346012,0.0003861785
7.4505806e-07,1.3679266e-05,0.0029661953,0.00022831559,9.000301e-05,0.99999785,0.0061152577,1.8328428e-05,0.21477401,6.520748e-05
2.3394823e-05,2.9802322e-08,1.0579824e-05,0.99998426,1.4901161e-07,0.00041159987,0.0028644204,1.2218952e-06,5.38826e-05,6.556511e-06
0.9873702,2.9802322e-08,6.4969063e-06,1.7881393e-07,5.9604645e-08,0.0022642314,0.004844457,6.4373016e-06,0.00012868643,0.0015322566
8.225441e-06,8.940697e-08,2.7418137e-06,0.9999976,7.1525574e-07,0.00013315678,0.0008160472,5.9604645e-08,0.000577569,1.7881393e-06
2.682209e-07,0.8536979,0.0050193667,0.9998319,0.0001219511,0.0017463863,0.0031253695,0.0,0.105852604,2.297759e-05
0.99522346,0.0,1.937151e-06,1.4901161e-07,1.4901161e-07,0.00069206953,0.0010777116,1.0460615e-05,8.2969666e-05,0.0004911423
5.722046e-06,1.2725592e-05,0.0016823709,0.014042288,0.0915263,0.9998641,0.016025037,0.0024012327,0.0020827055,4.285574e-05
1.3411045e-06,0.0,3.2782555e-06,0.9999993,8.940697e-08,8.943677e-05,0.0027339756,1.4901161e-07,1.2606382e-05,2.9802322e-08
6.28829e-06,0.0,1.50203705e-05,2.3841858e-07,0.0,3.3020973e-05,0.0013339818,5.6028366e-06,0.99993694,5.185604e-06
0.0013747811,1.4901161e-07,1.4901161e-06,0.99761975,6.556511e-07,0.0021378696,0.0024884343,6.854534e-07,0.010520339,2.4735928e-06
0.00010970235,4.917383e-06,0.0003375411,0.00012868643,2.8759241e-05,9.894371e-05,0.0013610721,0.0,0.0025452375,0.98834383
6.854534e-07,0.0,2.682209e-07,0.99999857,0.0,2.6166439e-05,0.0018513799,2.9802322e-08,1.0758638e-05,2.3841858e-07
0.0015173852,0.00015702844,2.8014183e-06,6.556511e-06,8.940697e-08,0.008659869,0.8268817,4.7683716e-07,0.64104646,0.0009762943
0.9955679,0.0,9.23872e-07,4.7683716e-07,0.0,0.0012099445,0.0008085966,3.6627054e-05,0.00018453598,8.8095665e-05
0.99901485,0.0,1.4901161e-07,5.9604645e-08,0.0,0.00026789308,0.00077044964,5.9604645e-07,1.3500452e-05,2.3543835e-05
0.775707,0.0,6.3180923e-06,0.00014084578,2.9802322e-07,0.0018010437,0.001642555,0.020610422,0.0040809214,0.0004746914
0.015403926,2.2053719e-06,6.0796738e-06,1.5586615e-05,5.9604645e-08,0.0033691823,0.93335134,0.041697264,6.189942e-05,0.00016435981
5.9604645e-08,0.0,9.834766e-07,0.99999106,5.6922436e-06,0.00016015768,0.0011322498,0.0,0.8223841,0.0
8.374453e-06,0.00050497055,0.051752836,1.9609928e-05,0.0001475811,0.9855037,0.019758672,9.834766e-07,0.121637255,0.085500866
0.026406169,8.940697e-08,3.6358833e-06,1.4305115e-05,5.632639e-06,0.0019314289,0.0040145516,1.8775463e-06,0.7632961,0.009052008
2.0861626e-07,0.0063436925,0.52944136,0.00155285,2.7030706e-05,0.00075280666,0.5143882,2.0861626e-07,0.9983227,3.734231e-05
0.5992733,0.0,1.7881393e-07,1.1920929e-07,1.1920929e-07,3.1024218e-05,0.0006171763,0.17756721,0.00015425682,5.811453e-06
0.0031018555,2.0861626e-07,0.00017860532,7.122755e-06,1.3917685e-05,0.00024151802,0.0065420866,2.0861626e-07,0.99462116,0.000957191
0.9887273,0.0,6.9737434e-06,4.7683716e-07,0.0,0.001026988,0.0017279088,0.0007112622,8.830428e-05,5.8710575e-05
0.9829234,0.0,2.0861626e-07,1.66893e-06,0.0,0.0015639961,0.0015278757,3.874302e-07,0.016044289,0.00016450882
0.0011167526,5.3346157e-06,0.98929685,1.3411045e-05,2.9802322e-08,0.0011855066,0.0042673647,6.556511e-07,0.029072195,2.9742718e-05
0.9972179,0.0,1.2814999e-06,8.940697e-08,0.0,0.00053042173,0.0009163022,2.5331974e-06,0.0005713403,0.00018107891
1.0728836e-06,0.0,3.2782555e-06,4.5478344e-05,2.9802322e-08,3.6656857e-05,0.0010227859,5.841255e-06,0.9987862,0.0022387803
0.16791448,0.0,7.122755e-06,3.1292439e-06,3.2782555e-06,0.0016019344,0.0037761629,1.1622906e-06,0.78431547,0.00011566281
0.9891788,2.9802322e-08,2.1278858e-05,3.516674e-06,2.1457672e-06,0.0020317435,0.002237022,8.34465e-07,0.0005339384,0.0004261136
0.013724357,0.0,3.1292439e-06,7.4505806e-07,1.8179417e-06,0.00028523803,0.0026440918,1.7881393e-07,0.9199989,0.0006815195
0.28055006,0.0,7.778406e-06,4.6491623e-06,4.7683716e-07,0.0016385317,0.0022589266,1.3709068e-06,0.8122076,0.00041255355
3.5762787e-07,1.4781952e-05,0.9993798,0.0010331571,0.0012967885,0.0021278858,0.020974398,9.095669e-05,0.019439012,0.0038865805
2.682209e-07,0.0,4.3809414e-06,8.940697e-08,0.0011270642,4.9710274e-05,0.009211272,0.0,0.99983156,1.4305115e-06
4.386902e-05,0.00023627281,0.0016228855,9.506941e-06,0.2317625,0.0024635792,0.13030592,3.7044287e-05,0.0101159215,0.23787284
0.61918676,5.9604645e-08,1.1622906e-06,9.030104e-06,8.940697e-08,0.0011954308,0.0025014877,2.9802322e-07,0.80705214,0.00014007092
7.867813e-06,0.0,5.7816505e-06,9.298325e-06,2.9802322e-08,5.90384e-05,0.0042785704,5.9604645e-08,0.99998945,4.7683716e-07
0.99500453,0.0,2.9802322e-07,1.1920929e-07,8.940697e-08,0.00077492,0.0024715066,2.3841858e-07,0.00035366416,8.329749e-05
0.015136033,2.3841858e-07,5.8710575e-06,2.2441149e-05,5.364418e-07,0.0013849139,0.00730443,3.3080578e-06,0.9586316,0.0069740415
2.682209e-07,4.3809414e-06,0.27740127,2.2917986e-05,6.189942e-05,0.99990344,0.010000199,4.6789646e-06,0.9680275,4.2915344e-06
0.053346515,9.23872e-07,3.734231e-05,3.6358833e-06,1.1920929e-07,0.007932603,0.012805015,5.751848e-06,0.9448925,0.0004826188
0.9142126,8.940697e-08,2.6226044e-06,1.8537045e-05,0.0,0.0041714013,0.0019474626,5.185604e-06,0.21152735,0.00036787987
0.9918592,0.0,3.2782555e-06,1.2516975e-06,5.9604645e-08,0.0034796596,0.0014027059,5.0365925e-06,0.00022408366,0.0007427037
0.00012886524,0.0,7.2717667e-06,1.937151e-06,1.1920929e-07,0.00032657385,0.005323231,1.8775463e-06,0.9996798,8.34465e-06
0.00011643767,1.1920929e-07,0.9996252,4.172325e-07,1.1920929e-06,0.00041362643,0.0011818111,4.4703484e-07,0.00059455633,7.7188015e-06
0.9963912,0.0,8.940697e-08,5.9604645e-08,1.7881393e-07,0.0004518628,0.00082066655,5.9604645e-08,0.0002232194,2.2113323e-05
0.95508146,0.0,8.314848e-06,5.9604645e-07,2.0861626e-07,0.0029852092,0.002346456,4.8577785e-06,0.009999961,0.0011690855
0.98068595,0.0,1.1920929e-07,2.9802322e-08,0.0,7.44164e-05,0.00047639012,0.0038926005,6.780028e-05,0.00015068054
0.0,5.8799982e-05,0.97401714,0.00077298284,0.00037565827,0.95871025,0.0056234896,8.046627e-07,0.99319243,1.6093254e-06
0.98390985,0.0,1.001358e-05,3.5762787e-07,2.682209e-07,0.00067955256,0.0014570355,3.6120415e-05,0.0051652193,2.4706125e-05
5.185604e-06,0.36011338,0.009055734,0.0006144047,8.34465e-07,0.0028787255,0.045360297,5.841255e-06,0.9888929,0.0038915277
3.0398369e-06,0.9873564,0.015414983,0.0012687445,4.568696e-05,0.89420164,0.0009370148,3.2782555e-06,0.19497806,0.0010103285
0.14701113,2.0861626e-07,1.9669533e-06,8.392334e-05,2.0861626e-07,0.002893597,0.0042085946,4.7683716e-07,0.9228867,0.000114917755
8.940697e-08,2.9802322e-08,0.0002645254,0.9999969,0.73317134,0.0009985864,0.004098147,2.3841858e-07,0.0040130913,1.1920929e-07
0.94087553,8.940697e-08,0.0001821518,3.7252903e-06,7.748604e-07,0.0030919313,0.004883796,1.6510487e-05,0.10314575,7.921457e-05
2.7626753e-05,0.0,7.3581934e-05,1.4305115e-06,5.9604645e-08,0.0002425909,0.0031134784,3.3080578e-06,0.9974911,0.0016189814
0.013926834,0.0025609732,1.347065e-05,2.7090311e-05,1.1920929e-07,0.008007884,0.88180375,1.8328428e-05,0.05958861,0.0006145537
1.4305115e-06,0.0,2.9802322e-07,0.9999998,1.4901161e-07,0.0002681911,0.001721859,0.0,4.61936e-06,0.0
9.88245e-05,3.2156706e-05,2.3841858e-07,2.2351742e-06,2.0861626e-07,0.0016799569,0.9976871,8.970499e-06,0.00029930472,0.0022363067
0.9237711,0.0,1.4901161e-07,4.3809414e-06,0.0,0.0013850629,0.0010083318,8.34465e-07,0.13920304,0.00019422174
0.9573884,0.0,4.5835972e-05,5.364418e-07,2.9802322e-07,0.00076055527,0.0024155974,0.0126128495,9.444356e-05,2.5808811e-05
2.5331974e-06,0.0002400279,0.0044638216,0.00137496,0.00788483,0.999956,0.011261314,0.0018155873,0.01317057,0.00090768933
2.026558e-06,0.0,1.4841557e-05,9.089708e-06,0.0,0.000105798244,0.008713514,1.1920929e-07,0.99998146,3.3080578e-06
2.0861626e-07,0.00020632148,0.04190573,0.9911759,6.29127e-05,0.0010760725,0.023409635,2.9802322e-08,0.97976357,1.3709068e-06
0.56337047,2.3841858e-07,1.6391277e-06,2.3186207e-05,4.4703484e-07,0.0007574558,0.0018219948,8.940697e-08,0.4001921,0.017287493
2.8908253e-06,0.0018756688,3.0249357e-05,6.464124e-05,2.8312206e-06,0.003890574,0.7975932,0.0,0.9846514,0.00093626976
0.9936967,0.0,1.5795231e-06,5.066395e-07,0.0,0.0017513037,0.0018852055,3.811717e-05,3.3199787e-05,0.00015681982
0.9950917,0.0,7.748604e-07,2.1755695e-06,0.0,0.000800997,0.0010489821,0.00014320016,2.0682812e-05,0.00020778179
5.632639e-06,5.9604645e-08,1.5795231e-06,0.9999989,3.2782555e-07,0.00014647841,0.0016744137,0.0,0.00010946393,2.682209e-07
0.99561065,0.0,1.0728836e-06,5.9604645e-08,0.0,0.003163308,0.0028027594,5.751848e-06,0.00014540553,3.439188e-05
0.007904947,0.00015059114,0.00058069825,1.1533499e-05,2.2798777e-05,0.0031446218,0.017340869,4.172325e-07,0.7737462,0.3031687
0.0067529976,0.0,2.3543835e-06,0.00010198355,1.2516975e-05,0.0010665357,0.0004823506,0.98608977,0.012352824,0.00042647123
2.3245811e-06,0.0,5.543232e-06,6.28829e-06,1.7881393e-07,6.976724e-05,0.0059227347,7.1525574e-07,0.9999895,4.7683716e-07
7.0929527e-06,0.0,6.2584877e-07,0.9999735,2.592802e-06,0.00022989511,0.0017841756,2.9802322e-08,0.003951341,0.0
5.364418e-07,0.98166966,0.009678245,0.0015720427,0.5099683,0.003576696,0.016922563,1.4007092e-06,0.025400728,0.00024062395
2.6136637e-05,0.0,0.00020939112,0.0005351007,1.50203705e-05,0.00097483397,0.0010244846,2.5838614e-05,0.0010512173,0.9859587
2.2649765e-06,2.9802322e-08,5.364418e-07,0.99999857,1.937151e-06,0.00033190846,0.0012183189,0.0,0.00010597706,1.7881393e-07
4.1127205e-06,0.0,4.3213367e-06,0.9999987,1.4871359e-05,0.0004813373,0.0047259927,0.0,0.008050978,1.1920929e-07
0.0005195439,0.0,7.1525574e-07,1.6331673e-05,3.874302e-07,0.00022032857,0.0037620366,8.940697e-07,0.999307,4.4107437e-06
0.8116995,2.9802322e-08,4.529953e-06,5.811453e-06,8.046627e-07,0.0034838319,0.0021566153,2.8014183e-06,0.14569438,0.0041604936
0.99753654,0.0,2.3841858e-07,0.0,0.0,0.00014537573,0.00044482946,8.046627e-05,5.8948994e-05,8.940697e-06
4.8577785e-06,0.00010192394,0.0002809465,0.0020195544,6.994605e-05,0.0074103475,0.9722748,0.002617985,8.4638596e-05,0.018687487
0.006100565,0.0,1.5199184e-05,0.00022283196,6.401539e-05,0.0013816357,0.0041766465,5.662441e-07,0.98652804,0.0004453659
0.99760723,0.0,1.7881393e-07,2.9802322e-07,0.0,0.0005338788,0.00075668097,2.3841858e-07,4.836917e-05,0.0006659627
0.9950037,0.0,4.172325e-07,2.0861626e-07,1.1920929e-07,0.00051787496,0.0030499995,7.1525574e-07,8.895993e-05,0.00013282895
0.00027480721,1.1920929e-07,0.00033429265,0.00012814999,6.556511e-06,0.00044938922,0.0036682487,0.9914852,0.012467891,0.0029217005
0.99111104,0.0,2.2858381e-05,1.1920929e-07,5.9604645e-08,0.0019676685,0.0013459325,1.0550022e-05,0.0030639172,7.3581934e-05
0.17837042,0.0,9.834766e-07,2.682209e-07,0.0,5.3793192e-05,0.00031501055,0.9858609,1.0639429e-05,1.8060207e-05
8.940697e-08,5.364418e-07,0.99836576,5.352497e-05,2.0861626e-07,4.324317e-05,0.008580029,0.0,0.9984738,2.9802322e-08
7.045269e-05,5.9604645e-08,0.99944353,8.34465e-07,7.4237585e-05,0.0016610026,0.0019828677,2.2053719e-06,0.09235343,3.0100346e-06
0.9897819,1.7881393e-07,0.0011996925,1.4901161e-07,2.3841858e-07,0.00068968534,0.0030857325,7.8082085e-06,3.8683414e-05,0.00020897388
7.748604e-07,2.360344e-05,0.0014020801,0.0022733808,5.6177378e-05,0.9999995,0.0036420524,0.00035747886,0.009651691,5.6177378e-05
0.2788963,1.1920929e-07,0.0009275377,0.0,5.9604645e-08,4.0471554e-05,0.00046417117,0.005979717,0.00016248226,0.6846874
0.9412607,0.0,4.3213367e-06,1.4305115e-06,8.940697e-08,0.0029324293,0.0022761524,0.0006836653,0.004122257,0.0040251613
0.00018578768,0.011479884,0.8218218,0.00041645765,7.331371e-05,0.0042609572,0.010433704,2.682209e-07,0.035814285,0.0028649867
4.7385693e-06,1.3113022e-06,0.99583364,0.106701106,0.00021114945,0.0038377643,0.028380752,0.017428607,0.00029861927,2.488494e-05
2.9802322e-08,0.045818865,0.0001489222,0.99999523,0.011097461,0.051799923,0.42488906,1.4901161e-07,0.009629548,3.4570694e-06
5.9604645e-07,7.4505806e-07,0.0015479624,0.99988854,0.0047038198,0.0018174648,0.0033878684,8.940697e-08,0.04056099,0.00017699599
3.1888485e-06,0.015298665,0.0,0.0012229085,0.0,5.4746866e-05,0.010730088,5.9604645e-08,0.46327013,4.1753054e-05
1.2814999e-06,1.1771917e-05,0.9901712,0.9878825,0.00021117926,0.0014949739,0.0058444142,1.5497208e-06,0.00051119924,8.234382e-05
0.99339783,0.0,2.0563602e-06,9.834766e-07,0.0,0.0014001727,0.0022374988,2.5331974e-06,0.00012585521,0.00013807416
0.0029536486,0.0,9.000301e-06,2.0861626e-06,0.94578,0.0011891425,0.0016597807,1.7881393e-07,0.06565124,0.0001590848
6.2584877e-07,0.24618462,0.023756772,0.0036332905,1.1026859e-06,0.0013771951,0.073179334,8.940697e-07,0.9991445,0.00014451146
5.4836273e-06,0.0,3.874302e-07,8.076429e-06,0.0,0.0004620552,0.004818499,1.7881393e-07,0.9998578,0.00012850761
0.97300947,0.0,3.9041042e-06,4.8577785e-06,0.0,0.0015714169,0.002963096,0.0039378107,4.529953e-06,7.57277e-05
0.98572975,0.0,1.758337e-06,6.4969063e-06,1.7881393e-07,0.0011652708,0.0007250011,3.2782555e-07,0.00033822656,0.0006721616
2.9802322e-08,0.00038582087,0.00020313263,0.9999657,2.4795532e-05,0.00012812018,0.03529203,0.0,0.99517643,0.0
0.7770135,0.0,6.818771e-05,6.854534e-07,5.9604645e-08,0.0029150546,0.0014451444,6.854534e-07,0.48470515,0.004921615
2.5510788e-05,8.34465e-07,0.9993243,0.004734248,6.9737434e-06,0.0011895597,0.0035425127,1.3113022e-06,0.00015676022,1.1116266e-05
2.2798777e-05,8.2075596e-05,0.97694385,0.00029441714,2.2649765e-06,0.001098156,0.0012849867,1.3113022e-06,0.2561757,6.902218e-05
0.9754431,0.0,5.2809715e-05,5.364418e-07,4.172325e-07,0.0011546016,0.0017314851,2.3245811e-06,0.0020243824,0.00021877885
0.00024473667,0.0,4.7266483e-05,6.2584877e-07,9.536743e-07,8.4102154e-05,0.0010817945,2.8908253e-06,0.99782157,0.00040894747
0.084517926,0.001341641,0.62424785,3.0219555e-05,7.033348e-06,0.013953954,0.068413496,0.0002799034,0.007758677,0.00068324804
1.3977289e-05,0.99907804,0.00079101324,0.01947245,7.6293945e-05,0.027464539,0.0025929213,2.3841858e-07,0.16680029,0.0010646284
0.9928942,0.0,4.720688e-05,4.172325e-07,2.9802322e-08,0.001267314,0.0016286075,2.5331974e-06,0.00023129582,0.00015476346
0.9930289,0.0,1.8179417e-06,6.854534e-07,0.0,0.00310421,0.0043354332,8.6426735e-07,0.00090125203,0.00019153953
0.046003073,1.1920929e-07,0.5125527,1.8179417e-05,1.4871359e-05,0.0014467239,0.003757596,9.161234e-05,0.6731684,0.00012153387
5.9604645e-08,6.2286854e-06,4.053116e-06,0.99999905,1.335144e-05,0.00036290288,0.009982675,0.0,0.1398355,2.0861626e-07
0.16706792,0.0,6.2584877e-07,1.8179417e-06,0.0,0.002141744,0.0014770925,2.4437904e-06,0.7638205,7.8737736e-05
0.01553762,1.1920929e-07,1.4543533e-05,7.0631504e-05,2.3543835e-06,0.0017625093,0.012257248,6.455183e-05,0.98810804,0.00011762977
2.3543835e-06,0.99871653,0.0010820031,0.020215362,4.7683716e-07,0.023420572,0.00096940994,1.4901161e-07,0.87349355,0.0002014935
2.682209e-07,8.940697e-08,2.115965e-06,0.99999964,6.5267086e-06,0.00035187602,0.005801022,0.0,0.0003030002,5.9604645e-08
0.9931973,0.0,5.9604645e-07,0.0,0.0,7.891655e-05,0.0011607707,0.00042402744,3.1381845e-05,2.7567148e-05
0.99253035,0.0,6.2584877e-07,8.940697e-08,5.9604645e-08,0.0029913783,0.002052933,1.1116266e-05,0.0002733469,0.00014287233
0.9568325,0.0,1.9073486e-06,3.5762787e-07,0.0,0.011420041,0.0019367337,4.4703484e-07,2.7537346e-05,2.1547079e-05
0.008997619,1.3917685e-05,0.00043019652,0.0008300245,7.4505806e-06,0.006459385,0.02850166,0.00016182661,0.07609603,0.46832213
6.8843365e-06,0.98938304,0.00015899539,0.001300931,1.4901161e-07,0.0013659894,0.00094792247,0.0,0.99844706,1.6003847e-05
5.6028366e-06,0.00011152029,0.012886226,0.00031870604,0.0028976798,0.99997497,0.02809441,0.00031366944,0.33697057,0.00013977289
0.9906573,0.0,1.7881393e-07,3.0100346e-06,0.0,0.002892077,0.0021032393,5.9604645e-08,0.0015997291,8.994341e-05
1.1026859e-06,7.161498e-05,0.94630843,0.00014346838,0.008276999,0.003571421,0.1896345,2.9116869e-05,0.0018808842,0.021043181
0.042370886,8.46386e-06,0.0099256635,2.026558e-06,4.7683716e-07,0.00084990263,0.0045677423,0.00023898482,0.00041916966,0.7802471
1.0728836e-06,1.4901161e-07,0.07264647,3.117323e-05,0.70668244,6.699562e-05,0.007488221,7.748604e-07,0.99982285,6.854534e-07
3.194809e-05,0.00013819337,0.00030636787,0.0002297461,4.5001507e-06,0.9998838,0.2317662,9.498e-05,0.012999475,7.900596e-05
0.9544689,3.0696392e-06,2.7447939e-05,1.4722347e-05,2.5331974e-06,0.0028518438,0.0007946491,5.662441e-07,0.023488164,0.0033749938
0.90012443,1.6868114e-05,0.0001475215,6.854534e-07,0.0,0.00031223893,0.00096675754,1.847744e-06,0.000117599964,0.45595697
2.4825335e-05,0.994977,0.00046241283,0.033688754,1.8119812e-05,0.008480191,0.01205197,1.1920929e-07,0.099558055,0.007984638
0.99050367,0.0,1.6093254e-06,5.364418e-07,0.0,0.0039758384,0.0064594448,1.3917685e-05,0.00013545156,8.404255e-06
0.0013077259,0.0,0.0001462698,2.1547079e-05,3.5762787e-06,0.0003556013,0.0035236478,3.7252903e-05,0.9982524,1.0877848e-05
2.0861626e-07,8.493662e-06,1.4483929e-05,9.119511e-06,1.4603138e-06,0.0070251524,0.9636728,1.4007092e-06,0.8669224,0.0068250895
0.99784607,0.0,2.9802322e-07,0.0,0.0,0.00025478005,0.0007081628,1.2218952e-06,0.00025507808,2.9742718e-05
0.00015982985,8.612871e-06,0.00096297264,6.7949295e-06,5.930662e-06,0.9997968,0.0076679885,2.9981136e-05,0.053617448,0.00012436509
0.013246536,2.2947788e-06,0.9813479,2.3841858e-07,2.9802322e-08,0.0009197295,0.006488353,0.010462016,0.00010111928,2.4795532e-05
1.31726265e-05,2.0861626e-07,4.053116e-06,0.9999932,5.9604645e-08,0.00026342273,0.0008637011,0.0,0.0008879602,8.940697e-08
0.09293854,4.172325e-07,0.0024289489,8.672476e-06,4.3213367e-06,0.00080919266,0.0029464066,0.050543725,0.0069033206,0.8587647
0.5249221,0.0,2.9802322e-07,1.4007092e-06,0.0,0.00038549304,0.0013540387,3.1888485e-06,0.86726016,1.3977289e-05
0.060086757,1.4841557e-05,2.4497509e-05,2.2053719e-06,5.066395e-07,0.0006737709,0.4239211,6.854534e-07,8.3208084e-05,0.003234595
0.010231227,5.9604645e-08,2.8312206e-06,1.32620335e-05,0.0,0.0006145537,0.0023319423,1.7881393e-07,0.9968705,4.5120716e-05
0.00021022558,0.9773383,0.002303183,0.0022835433,3.2275915e-05,0.008513778,0.0061103404,1.4901161e-07,0.03357619,0.007633209
0.9914713,0.0,3.2782555e-07,7.033348e-06,5.9604645e-08,0.0023097396,0.0012073815,5.066395e-07,0.00080114603,0.00045731664
0.043229908,1.2814999e-06,4.157424e-05,9.000301e-06,8.940697e-08,0.00056117773,0.0015814006,0.0,0.76835847,0.09247509
0.98860633,0.0,1.7881393e-07,8.940697e-08,0.0,0.0005453229,0.0006585717,4.7683716e-07,0.0009794235,0.00010305643
0.16055357,1.7881393e-07,0.923671,5.9604645e-08,0.0,0.0002824068,0.0023973584,0.00020390749,7.1167946e-05,2.2530556e-05
0.95823693,0.0,1.4305115e-06,4.7385693e-06,4.3094158e-05,0.0014630556,0.0020681322,4.7683716e-07,0.0018025041,0.00416404
0.98774266,0.0,2.682209e-07,2.9802322e-08,8.940697e-08,0.0006208718,0.0014453828,0.00019389391,4.6133995e-05,1.6093254e-05
0.0016331971,0.00029557943,0.000105798244,0.0002657473,0.00052300096,0.00415051,0.918349,3.3527613e-05,0.00015047193,0.01605454
0.15578979,4.2021275e-06,0.9128228,5.90086e-06,1.1622906e-06,0.002942711,0.005042881,8.994341e-05,0.0003208518,0.00018677115
0.72280216,0.0,2.9802322e-08,2.9802322e-08,0.0,1.2695789e-05,0.0002976954,0.6458514,4.1127205e-06,2.6524067e-06
8.940697e-08,1.1920929e-07,0.0003311038,0.00034096837,2.9474497e-05,0.9999985,0.0036055148,3.2931566e-05,0.9528806,1.5199184e-06
0.0,5.9604645e-08,7.748604e-06,0.9999999,0.0003412068,0.00019845366,0.0043019056,8.940697e-08,1.30832195e-05,0.0
0.009279996,0.0,9.5665455e-06,6.2584877e-07,1.4305115e-06,0.00022104383,0.002824217,1.6987324e-06,0.97909415,6.979704e-05
0.99722666,0.0,1.758337e-06,1.4901161e-07,0.0,0.0010232627,0.0022411346,1.7881393e-07,0.00020045042,0.00011044741
4.6104193e-05,6.854534e-07,0.99125063,5.364418e-07,0.03117606,0.00024688244,0.0058675706,3.5762787e-07,0.00017675757,0.0001052022
0.0,3.516674e-05,0.9958646,0.9953635,0.00042164326,0.0058071613,0.4750242,8.34465e-07,3.156066e-05,1.0430813e-06
0.9944788,5.9604645e-08,1.4901161e-07,6.854534e-07,8.940697e-08,0.0008761287,0.0007468462,2.9802322e-07,0.0016397834,0.0016905367
1.0848045e-05,2.0861626e-07,0.00048300624,0.0002040863,2.9802322e-07,6.189942e-05,0.013298899,0.00072294474,0.9998461,5.990267e-06
1.052022e-05,4.9978495e-05,1.6093254e-06,1.14142895e-05,1.2218952e-06,0.009038985,0.99609363,1.6093254e-06,0.0016238391,0.0009856224
9.5933676e-05,3.9845705e-05,0.994539,5.1796436e-05,0.0013199747,0.002324611,0.009221345,2.3841858e-07,0.1045396,0.0004566908
0.001232028,0.0,1.4781952e-05,9.4771385e-06,3.5762787e-07,0.00016364455,0.0014269948,6.380677e-05,0.99743426,3.6358833e-06
3.2782555e-07,0.42969784,0.02249989,0.0016831756,0.00024968386,0.9937135,0.06611559,4.7385693e-06,0.16927913,0.0005811453
2.3841858e-07,1.7881393e-07,0.00011983514,0.9999964,3.784895e-05,0.0002733469,0.01864162,1.7881393e-07,0.00012877584,0.00014281273
0.0,0.9823563,0.0048269033,0.9999211,4.529953e-05,0.033922315,0.054294944,0.0,0.01085484,6.2584877e-06
0.48575068,5.9604645e-08,3.9339066e-06,3.9428473e-05,0.0,0.0030506551,0.0019779205,0.001730293,0.73661697,0.00013750792
0.0005092323,0.00012168288,0.0009428859,0.0004169643,6.750226e-05,0.9998331,0.006411016,0.0015369654,0.09282121,6.0141087e-05
0.9880425,0.0,3.1590462e-06,2.0861626e-07,5.662441e-07,0.0005580783,0.0014587641,9.834766e-06,0.0040044487,9.88543e-05
2.9802322e-08,6.997585e-05,0.96719706,0.00040757656,0.00026518106,0.9997827,0.009934992,5.5283308e-05,0.047376543,1.7434359e-05
0.0060428083,0.0,1.3411045e-06,9.021163e-05,8.940697e-08,0.0025892258,0.0016724169,0.00025880337,0.9826623,2.604723e-05
0.0,9.23872e-07,5.5134296e-06,0.99999833,0.14376375,0.00040975213,0.0071104765,1.5109777e-05,9.909272e-05,1.4305115e-06
0.00046515465,2.9802322e-08,9.179115e-06,4.798174e-06,8.940697e-08,7.379055e-05,0.0023801625,4.172325e-07,0.9998487,2.0563602e-06
0.7993648,2.9802322e-08,8.761883e-06,3.4570694e-05,1.1920929e-07,0.0011380613,0.0009087324,1.3291836e-05,0.0024130642,0.003926158
2.0861626e-07,0.0,1.1920929e-07,0.9999998,1.129508e-05,0.00043588877,0.0012973249,0.0,0.004557103,2.9802322e-08
0.98553777,0.0,5.0365925e-06,7.748604e-07,0.0,0.0016800463,0.0012138486,5.066395e-07,0.0022207499,0.0003362596
2.9802322e-08,0.0,1.1920929e-07,2.2053719e-06,0.0,8.940697e-08,3.0398369e-06,2.9802322e-08,9.351969e-05,0.99986446
0.0,3.3527613e-05,4.9471855e-06,0.9999951,3.874302e-07,0.00058177114,0.9750706,2.9802322e-08,0.00014719367,1.1920929e-07
5.9604645e-08,2.592802e-06,0.0002322495,4.1484833e-05,0.07154301,0.99999845,0.015379667,0.003545493,0.00066524744,4.8339367e-05
0.98562217,0.0,2.0563602e-06,3.874302e-07,1.7881393e-06,0.026682496,0.00092869997,4.23193e-06,6.222725e-05,8.0645084e-05
1.1920929e-07,4.7683716e-07,3.8027763e-05,2.592802e-05,4.172325e-07,0.0034409761,0.0012181103,3.5762787e-07,0.010948896,0.9930043
0.0003915727,1.1920929e-07,8.314848e-06,6.201863e-05,5.1259995e-05,0.0010378659,0.038062096,3.0398369e-06,0.9973446,0.00012135506
0.0009765029,0.0,1.5497208e-06,3.1799078e-05,4.172325e-07,0.00034487247,0.0052909553,1.4901161e-07,0.99877435,1.9490719e-05
0.020326525,0.0,6.556511e-07,2.503395e-06,0.0,0.00028648973,0.00042968988,3.1590462e-06,0.98156345,0.00027495623
0.0059548616,0.00017699599,2.1159649e-05,1.7940998e-05,2.0563602e-06,0.005885899,0.5305609,2.4169683e-05,0.0005981922,0.0011639893
0.0764671,1.1920929e-07,0.0001758933,7.250905e-05,1.9073486e-06,0.004033506,0.0058930814,0.78015435,0.0031918287,0.0059888065
0.17909867,0.00028523803,0.585579,1.3411045e-06,3.2782555e-07,0.0007201433,0.0014819205,0.0006401539,0.0007946491,0.017536342
0.000104516745,0.0,2.3841858e-07,2.6524067e-06,2.9802322e-08,0.0004030168,0.0031252503,1.4901161e-07,0.99958605,1.847744e-06
5.3942204e-06,0.9962429,0.006226063,0.0017035902,3.6656857e-06,0.013644934,0.013692349,6.28829e-06,0.005781263,0.0020453632
7.748604e-07,4.8339367e-05,0.0029996336,0.9994855,0.008714318,0.0024620593,0.011395246,0.0,0.08947724,3.0696392e-05
0.0020170212,4.3332577e-05,0.0016038418,3.2186508e-05,0.00012052059,0.00038471818,0.0016106963,0.0,0.17660409,0.6318623
0.12415591,0.0,1.1920929e-07,0.0,0.0,7.098913e-05,0.0016135573,0.95763266,1.2069941e-05,7.4505806e-06
2.9802322e-08,1.1920929e-07,1.8656254e-05,0.99999785,0.0083498955,0.00012353063,0.0010720491,0.0,0.04973048,2.9802322e-08
0.9164022,1.7881393e-07,5.3465366e-05,5.066395e-07,1.847744e-06,0.00243631,0.0041300356,6.4224005e-05,0.07367203,0.00045767426
0.9941095,0.0,3.993511e-06,1.3411045e-06,2.9802322e-08,0.0005276799,0.0012069643,3.874302e-07,0.00013443828,4.798174e-06
0.9954318,0.0,7.748604e-07,6.2584877e-07,0.0,0.0020323694,0.0014978647,7.033348e-06,0.0004338622,0.00018844008
0.9715942,0.0,1.0430813e-06,0.0,0.0,0.0006979704,0.000978142,1.4901161e-07,0.027870357,0.0012952685
2.9802322e-07,0.0010246038,0.37225395,0.004955083,0.087227374,0.12205118,0.013228565,1.3113022e-06,0.99830276,4.529953e-06
0.00014868379,2.0563602e-06,0.00078204274,0.0003940165,1.0728836e-06,0.9999934,0.0049259663,0.0021359622,0.008266717,8.672476e-06
0.98698664,0.0,2.3245811e-06,5.543232e-06,1.4901161e-07,0.0038783848,0.0030581057,5.066395e-07,0.0007702112,0.0011333227
0.8944166,0.0,7.212162e-06,1.5497208e-06,7.1525574e-07,0.00078228116,0.0005585253,9.834766e-06,0.00024148822,0.18543136
0.9968589,0.0,8.940697e-08,9.834766e-07,0.0,0.0014613867,0.0027341545,1.0669231e-05,6.4998865e-05,5.2809715e-05
4.4703484e-07,0.0,0.0,4.172325e-07,2.0861626e-07,2.9802322e-08,8.761883e-06,0.0,4.6491623e-06,0.99996626
2.2470951e-05,0.0006095469,0.6307642,2.4557114e-05,2.9802322e-06,0.0013026297,0.041002125,2.69413e-05,0.99751496,8.124113e-05
0.0022464097,5.9604645e-07,0.9864671,2.2172928e-05,5.662441e-07,0.0012813509,0.0018867254,1.013279e-06,0.0008491576,0.00027292967
0.05169046,3.8415194e-05,0.00016620755,1.0222197e-05,6.6161156e-06,0.0077985823,0.3485482,0.00016105175,0.60079366,0.005762756
0.0040256083,1.1920929e-07,7.379055e-05,0.001232624,0.7952707,0.27295274,0.0019598901,2.3126602e-05,0.009443432,4.273653e-05
0.899956,3.5762787e-07,1.8954277e-05,1.4811754e-05,2.9802322e-08,0.001252681,0.0009780228,0.00016984344,0.008030862,0.046320617
0.00010988116,2.9802322e-08,1.6987324e-06,0.9999459,8.940697e-08,0.0002039969,0.0010611415,0.0,0.00068718195,5.364418e-07
0.0,1.013279e-06,0.018437117,0.00057020783,0.021233708,0.00019714236,0.030104876,5.942583e-05,0.9997546,2.5331974e-05
0.9983709,0.0,0.0,1.4305115e-06,0.0,0.0005470216,0.00067797303,5.9604645e-08,0.0005992353,5.6922436e-06
0.8475096,2.9802322e-07,0.0006675124,4.4435263e-05,5.9604645e-08,0.0025889874,0.002288252,0.0039442778,0.06900522,0.033441156
0.97300106,0.0,7.1525574e-07,7.1823597e-06,1.7881393e-07,0.0016075969,0.0016588271,8.940697e-08,0.01572311,0.0001309812
7.1823597e-06,0.0,8.6426735e-07,1.9669533e-06,6.854534e-07,7.7188015e-06,0.00093334913,2.9802322e-08,0.99998593,3.5762787e-07
1.758337e-06,0.9960846,2.6851892e-05,0.00374645,1.9967556e-06,0.00044474006,0.0017473698,0.0,0.99891233,3.7252903e-06
0.9977807,1.4901161e-07,3.695488e-06,8.940697e-08,0.0,0.00029164553,0.0011858642,0.0,4.5657158e-05,0.0008095503
0.028758645,6.2584877e-07,0.968062,1.8835068e-05,2.9802322e-07,0.0020985007,0.0035657585,2.2292137e-05,0.008695841,5.7905912e-05
4.7683716e-07,4.7683716e-07,0.00011447072,0.9999578,0.019687355,0.0026790202,0.0014861226,2.9802322e-08,0.016938895,3.5762787e-07
0.98174226,0.0,2.682209e-07,3.5762787e-07,0.0,0.00034025311,0.000677675,0.0020862222,9.280443e-05,4.7385693e-06
4.4703484e-06,2.9802322e-07,0.9996257,0.0014203489,0.00022229552,0.0015467107,0.0027093291,1.1920929e-06,0.029889017,6.8575144e-05
0.00026470423,0.0008991957,0.00025075674,0.00013434887,2.7745962e-05,0.0063238144,0.98017716,8.0645084e-05,0.31215432,0.0046917796
1.013279e-06,3.117323e-05,0.001532942,7.2717667e-06,3.0100346e-06,0.00018629432,0.0042777658,4.7683716e-07,0.04135877,0.9879023
0.98497254,1.1920929e-07,2.9802322e-07,2.0861626e-07,0.0,0.0017953217,0.008647412,1.937151e-06,0.0008929372,0.00055772066
0.0555982,9.089708e-06,0.0027003288,5.90086e-06,1.3411045e-06,0.4215828,0.034737617,2.142787e-05,0.0007933974,6.508827e-05
5.662441e-07,0.30959988,0.007645339,0.9988873,1.9848347e-05,0.015307426,0.03657332,2.9802322e-08,0.6876887,3.9041042e-05
6.0498714e-06,0.00053429604,0.0031012595,0.0004943013,4.094839e-05,0.99997425,0.05147475,7.6293945e-05,0.064302534,0.00040096045
1.1146069e-05,4.7683716e-07,0.9063928,0.00018030405,1.692772e-05,5.1021576e-05,0.0008510947,0.8210321,0.00075501204,0.00038945675
6.595254e-05,5.9604645e-08,0.00021201372,3.8921833e-05,8.85129e-06,0.0004389882,0.002180785,0.0122769475,0.9076654,0.009007245
6.747246e-05,0.99674714,0.0013085008,0.0036217868,5.120039e-05,0.042005002,0.0051242113,5.364418e-07,0.054114282,0.0056800246
0.0,8.940697e-06,0.99018544,0.99991167,0.0005892813,0.00029549003,0.0048268437,0.0,0.9719564,2.9802322e-08
1.4424324e-05,8.940697e-08,5.4836273e-05,2.104044e-05,1.7881393e-07,0.00010249019,0.0021740198,0.001031369,0.994916,0.002133906
0.0,9.179115e-06,0.000441432,0.9999373,0.6159758,0.6042763,0.11465582,1.1622906e-06,0.0014826059,8.940697e-08
0.96099496,4.7683716e-07,0.00045907497,2.2947788e-06,4.4703484e-07,0.0017768145,0.001750201,0.00079494715,0.004596293,0.0035839677
0.99521595,0.0,4.172325e-07,1.5497208e-06,1.7881393e-07,0.0014273822,0.0013130009,1.5497208e-06,6.0081482e-05,2.9236078e-05
2.4020672e-05,0.000119030476,0.5426655,0.00038811564,0.00011309981,0.9931811,0.0146537125,0.019205272,0.0035839379,0.0012327731
0.016215026,0.0,3.427267e-06,5.364418e-07,0.0,6.920099e-05,0.00067970157,0.9990654,7.3611736e-06,2.6881695e-05
0.0,5.9604645e-08,0.0003065467,0.00013267994,0.0003297329,1.0,0.00043013692,0.003525585,0.037256032,7.4505806e-07
0.012969941,2.3841858e-07,0.00016406178,2.2679567e-05,5.662441e-07,0.99527967,0.0041716993,9.447336e-06,0.00947991,4.762411e-05
7.4505806e-07,0.0002374053,0.006096989,0.0037038028,0.00030502677,0.99999905,0.010729253,0.00015324354,0.13398892,4.211068e-05
3.7640333e-05,3.5762787e-07,0.0040774345,2.6226044e-06,0.00013682246,0.0004748404,0.0051365197,0.0004749298,0.29342252,0.63306326
8.374453e-06,3.5762787e-07,0.9998865,6.854534e-06,0.000115931034,0.00063434243,0.004617065,0.00013583899,0.00038957596,0.00014153123
1.5497208e-06,0.0,1.6987324e-06,0.9999969,3.5762787e-07,0.0001077652,0.0035966337,2.9802322e-07,1.257658e-05,1.7881393e-07
0.69072425,0.0,0.0002362132,5.7816505e-06,0.0001206398,0.0039866865,0.0014852881,1.7881393e-06,0.0046534836,0.04931888
0.998809,0.0,2.9802322e-08,2.9802322e-08,0.0,0.00023949146,0.0002706051,3.5762787e-07,1.9311905e-05,6.2286854e-05
0.0016804338,9.834766e-07,0.00035896897,6.145239e-05,1.5854836e-05,0.9997325,0.0022959113,0.0012386143,0.045538336,0.000744164
0.001478672,1.3738871e-05,0.00016769767,1.9729137e-05,9.536743e-06,0.0064359605,0.48048025,2.8461218e-05,0.025873184,0.0060028136
4.5895576e-06,1.2874603e-05,0.9300612,0.00030720234,0.46692944,0.019032627,0.00067049265,5.5372715e-05,0.07035026,0.0031436384
0.07574692,0.0,6.467104e-06,1.0430813e-06,2.3841858e-07,0.7367317,0.009834588,0.00015899539,0.0033981204,7.086992e-05
0.93557197,0.0,1.2516975e-06,1.0728836e-06,5.9604645e-07,0.00052019954,0.0005595982,2.05338e-05,0.0013689101,0.001173079
0.24649712,1.6778708e-05,0.010537326,8.940697e-08,7.4505806e-07,0.0007074475,0.003933549,8.663535e-05,0.006513834,0.42977038
0.0012339056,1.4305115e-06,5.763769e-05,0.00019553304,4.348159e-05,0.25582683,0.011910051,0.00015968084,0.27161425,0.005451441
0.95058596,8.940697e-08,5.877018e-05,2.3543835e-06,1.4215708e-05,0.0022027493,0.012119174,5.1528215e-05,0.0006006658,0.0032812655
0.038840145,1.6093254e-06,1.5377998e-05,2.95043e-05,1.4007092e-06,0.65573686,0.0052985847,5.7041645e-05,0.10235694,0.022554815
0.9891963,0.0,1.5497208e-06,5.364418e-07,0.0,0.00018641353,0.0007213056,0.00054585934,2.2619963e-05,1.1205673e-05
0.015238076,2.7418137e-06,7.4505806e-07,3.027916e-05,0.0,7.906556e-05,0.0016933978,2.3841858e-07,0.99235344,5.6803226e-05
4.7057867e-05,6.368756e-05,0.98858505,1.3232231e-05,1.218915e-05,0.99325097,0.017611176,0.00045838952,0.0016817749,2.2500753e-05
0.9727559,3.2782555e-07,4.544854e-05,1.1622906e-06,4.4703484e-07,0.002402544,0.0042570233,1.5199184e-06,0.009631187,0.0013161898
2.9802322e-08,0.003924459,3.1083822e-05,0.9999709,0.0021548867,0.03664571,0.65423304,1.7881393e-07,0.00074222684,1.3798475e-05
0.7127649,0.0,1.1324883e-06,7.4505806e-07,4.172325e-07,0.0042533576,0.00081184506,0.00045457482,0.00042039156,0.04077795
3.7252903e-06,2.9802322e-07,1.218915e-05,0.99999654,5.364418e-07,0.00015750527,0.0012199879,0.0,0.0006964505,7.390976e-06
0.9789579,3.2782555e-07,8.34465e-07,3.1292439e-06,0.0,0.0014337599,0.00097605586,3.9041042e-06,0.022789448,0.00014591217
4.4077635e-05,1.6391277e-06,3.2424927e-05,2.0325184e-05,4.133582e-05,0.0005733371,0.008686215,1.5109777e-05,0.9697919,0.0059791803
9.23872e-07,0.0002413094,0.002325803,0.00018188357,4.515052e-05,0.99999636,0.010798663,0.000313282,0.017301142,0.00021091104
5.9604645e-08,7.748604e-07,6.7055225e-05,0.99999744,0.00015720725,0.00023323298,0.015504479,3.33786e-06,0.00032150745,2.1368265e-05
0.9893566,0.0,4.5895576e-06,2.6226044e-06,2.0861626e-07,0.002531439,0.0023408532,9.834766e-07,0.00059476495,0.0002924502
3.1143427e-05,0.0,6.2286854e-06,8.34465e-07,1.4901161e-07,5.7131052e-05,0.002657652,8.940697e-08,0.9999469,2.115965e-06
0.01793155,2.9802322e-07,0.96119994,1.1026859e-06,9.298325e-06,0.0014613271,0.0055809617,0.00010216236,0.001717627,0.00041276217
0.00038042665,0.9986143,3.9607286e-05,0.00035217404,2.3543835e-06,0.006069869,0.00043094158,2.9802322e-08,0.008140564,0.00011378527
0.9947493,0.0,3.5762787e-07,1.1920929e-07,0.0,0.0006939769,0.0008651316,2.0861626e-06,0.0007336736,2.9176474e-05
0.00049716234,0.0,8.684397e-05,8.046627e-07,1.1920929e-07,0.00011116266,0.006014496,4.6491623e-06,0.99980396,8.34465e-07
0.97656775,0.0,2.0891428e-05,2.5629997e-06,1.2725592e-05,0.0034472942,0.0031028688,4.261732e-06,0.0032472014,5.64456e-05
0.0,0.0026839077,0.9389943,0.5700894,0.000113487244,0.0054020584,0.35133255,2.4437904e-06,0.9788321,1.1265278e-05
0.05201772,0.0,1.0728836e-06,1.3113022e-06,4.172325e-07,0.00016915798,0.0007582903,9.030104e-06,0.93721354,2.2441149e-05
0.9900992,0.0,1.4901161e-06,1.1920929e-07,1.4007092e-06,0.0032743514,0.0024203062,3.8444996e-06,0.0006415546,0.00028705597
0.9836167,0.0,3.5762787e-07,0.0,0.0,7.7813864e-05,0.0007431805,0.0022354126,7.849932e-05,1.04010105e-05
0.3280983,2.9802322e-08,8.34465e-07,3.5762787e-07,8.940697e-08,0.0026207566,0.6154265,1.2218952e-06,0.00013649464,3.33786e-06
0.8715768,5.2452087e-06,1.0728836e-06,3.120303e-05,0.0,0.0033894777,0.002994895,3.5762787e-07,0.31790745,0.0010189116
0.45831993,9.953976e-06,0.0002771914,2.8759241e-05,1.6987324e-06,0.0018252432,0.0025013983,1.4901161e-07,0.41345927,0.010540307
6.0647726e-05,0.0,3.2782555e-07,8.940697e-08,0.0,1.7166138e-05,0.001550734,8.940697e-08,0.9995536,5.6922436e-06
0.22410566,2.861023e-06,5.0216913e-05,3.0994415e-06,8.046627e-06,0.0021912158,0.25946707,0.009381473,0.0011627078,0.051198334
7.4505806e-07,5.9604645e-08,0.0052549243,2.2739172e-05,2.503395e-06,6.610155e-05,0.003999293,1.6510487e-05,0.9999745,8.842349e-05
0.0,0.0,4.4107437e-06,0.9999975,0.9932765,7.516146e-05,0.00022602081,0.0,0.03795725,0.0
0.8688792,0.0,1.3142824e-05,2.9802322e-08,2.3841858e-07,0.0011754632,0.00060912967,5.9604645e-08,0.0054689944,0.005708009
0.48539832,8.940697e-08,0.013256133,8.583069e-06,0.00010660291,0.006107807,0.0032461882,0.00016060472,0.1751732,0.0012280643
0.284447,0.0,6.7681074e-05,7.927418e-06,1.4901161e-07,0.00084361434,0.0009736419,0.00041365623,0.23120204,0.004227847
1.859665e-05,1.9550323e-05,2.682209e-07,6.3478947e-06,3.5762787e-07,0.015711665,0.99712783,2.0861626e-07,0.004445672,0.00138852
9.474158e-05,0.0,4.6879053e-05,1.2814999e-05,1.6987324e-06,0.0002990663,0.0041185915,0.9978268,0.0025635064,0.00018996
2.0861626e-07,2.2649765e-06,0.00013178587,0.99998456,3.7431717e-05,0.00043779612,0.004882276,1.0251999e-05,0.0001731813,2.0802021e-05
2.1755695e-06,4.172325e-06,3.758073e-05,0.00044760108,8.165836e-06,0.9461977,0.9060973,3.695488e-06,0.03872913,0.00043323636
2.9802322e-06,5.2303076e-05,0.042684793,0.002900958,0.13757715,0.023688197,0.17587179,4.3034554e-05,0.9919785,0.00013884902
2.3692846e-05,4.172325e-07,0.99964225,0.00011947751,1.0937452e-05,0.0008042455,0.0017265081,1.013279e-06,0.06457573,1.4036894e-05
3.5762787e-06,0.0,1.9609928e-05,2.9802322e-07,0.0,2.6404858e-05,0.0016727448,4.4703484e-06,0.99996126,2.169609e-05
0.99787056,0.0,2.3841858e-07,1.1920929e-07,0.0,0.0005798638,0.0010232925,1.847744e-06,0.00014409423,7.599592e-06
0.9384782,8.940697e-08,5.662441e-07,2.5779009e-05,0.0,0.0031219125,0.015484422,3.7252903e-06,0.002215296,0.0007315874
8.7320805e-06,0.0,5.9604645e-08,0.9999919,3.8146973e-06,0.00017899275,0.00016361475,8.940697e-08,3.3974648e-06,4.172325e-07
7.212162e-06,0.0,1.1891127e-05,0.9999976,7.8082085e-06,0.0003180802,0.0047376454,8.940697e-08,2.2113323e-05,1.4901161e-07
0.006083578,0.0,4.9948692e-05,6.854534e-07,6.854534e-07,7.197261e-05,0.0038879514,4.6104193e-05,0.99117976,1.1026859e-05
0.99520016,0.0,1.1026859e-06,3.8444996e-06,2.9802322e-08,0.0010511577,0.0007880926,6.2584877e-07,0.0005643666,0.00018817186
0.9794102,8.940697e-08,3.0636787e-05,2.0861626e-07,2.9802322e-07,0.0044602454,0.006191194,2.2768974e-05,0.002218634,0.00034311414
0.10403016,3.1292439e-06,2.9802322e-07,6.765127e-06,1.7881393e-07,0.0017403662,0.24713826,1.7881393e-07,0.0012045205,0.000716418
5.7905912e-05,3.257394e-05,0.0004054904,6.446242e-05,5.3703785e-05,0.007495314,0.9590415,0.000117093325,0.0005194843,0.0070319474
0.83007765,1.3709068e-06,4.1663647e-05,1.2069941e-05,1.3411045e-06,0.025666207,0.002600193,3.695488e-06,0.13416281,0.001106441
0.052703977,2.9802322e-08,6.854534e-07,1.1324883e-06,1.7881393e-07,0.0025951266,0.8245847,1.1920929e-07,0.004221171,0.0001746118
2.0354986e-05,2.9802322e-07,0.00041237473,1.3411045e-06,5.5342913e-05,0.0005044639,0.0065926015,3.2544136e-05,0.73502135,0.17897859
0.6865786,2.9802322e-08,6.1392784e-06,2.9206276e-06,8.940697e-08,0.00090262294,0.0014688671,8.127093e-05,0.70378685,0.00014945865
3.8057566e-05,0.0,1.4007092e-06,0.000113517046,1.7881393e-07,0.00012716651,0.006616235,2.9802322e-08,0.9998912,3.5762787e-06
5.364418e-07,0.99749064,0.00041514635,0.0012597442,2.9802322e-07,0.0005147159,0.0026483238,0.0,0.99743855,2.0563602e-05
0.0010075271,0.0,1.4007092e-06,5.6922436e-06,7.4505806e-07,0.0007869303,0.0029687583,1.4901161e-07,0.9914792,0.0011482239
8.177757e-05,1.1622906e-06,0.9985373,1.218915e-05,1.4305115e-06,0.0012461245,0.0024434626,4.4703484e-07,0.16067824,2.5331974e-06
0.0001026392,0.99634814,0.0020043254,0.23151356,4.4465065e-05,0.027406603,0.00033828616,2.026558e-06,0.031318158,0.00018495321
0.3591228,0.0,3.784895e-06,1.6987324e-06,8.940697e-08,0.00065273046,0.001711607,1.4901161e-07,0.81239486,0.00082209706
1.6093254e-06,0.99059236,0.00040268898,0.0019231737,1.7881393e-07,0.0021446645,0.009529799,2.9802322e-08,0.99735695,0.00013247132
2.2739172e-05,0.99666417,0.00035056472,0.051208973,9.313226e-05,0.004798323,0.011491954,2.9802322e-08,0.73506653,0.0007727444
0.00051146746,0.12317771,0.5181785,0.0005117655,2.0205975e-05,0.009533107,0.04459575,4.196167e-05,0.0015027821,0.03390193
2.3841858e-07,1.3113022e-06,0.0012433827,0.00045493245,7.793307e-05,0.9999999,0.0027408004,7.340312e-05,0.12803966,1.7523766e-05
2.413988e-06,0.81749237,0.006975621,0.00048577785,5.555153e-05,0.0033406317,0.36716956,0.00024348497,0.00019446015,0.0030418634
5.2154064e-06,1.3709068e-05,0.9857687,6.380677e-05,0.0002873242,0.0005057752,0.00089642406,2.503395e-06,0.9702002,1.31726265e-05
0.9264605,1.7881393e-07,6.446242e-05,2.9802322e-08,1.7881393e-07,0.00049844384,0.0006456971,9.778142e-05,7.376075e-05,0.3663993
0.0,4.708767e-06,0.0013623834,0.8730432,0.07006401,0.999997,0.019553334,2.4795532e-05,0.050695628,1.0043383e-05
0.8074746,5.9604645e-08,3.0428171e-05,2.026558e-06,0.0001578033,0.0007146299,0.001591146,2.0861626e-07,0.0044437647,0.0010437965
5.9604645e-08,0.00011077523,9.7990036e-05,0.99999666,0.00020381808,0.026079714,0.23166355,5.9604645e-08,0.0312804,9.23872e-07
0.093670905,0.0,8.225441e-06,4.6491623e-06,2.9802322e-08,0.00037437677,0.0010738969,0.9736315,4.211068e-05,0.0004387498
0.94532764,2.9802322e-08,5.441904e-05,4.053116e-06,1.4901161e-07,0.0005915463,0.00036779046,0.023149699,0.0013543367,0.0031811595
0.9020856,1.1026859e-06,0.007652074,3.1292439e-06,7.599592e-06,0.008951485,0.0088249445,0.009956658,0.0010413826,0.0033835769
0.99341077,0.0,1.1026859e-06,1.4305115e-06,0.0,0.0012152195,0.001229763,2.3841858e-07,0.0006019175,0.00051158667
4.4703484e-07,0.0,0.0,4.172325e-07,2.0861626e-07,2.9802322e-08,8.761883e-06,0.0,4.6491623e-06,0.99996626
0.20486638,2.771616e-06,1.0550022e-05,0.000109404325,2.6226044e-06,0.003753066,0.1684272,0.009866446,0.0041100383,0.0005314648
0.0001668036,0.0,6.28829e-06,1.5050173e-05,1.4305115e-06,0.00012010336,0.00556919,4.4703484e-07,0.99976695,2.115965e-06
0.0,9.298325e-06,0.0007607639,0.99995303,0.020168155,0.00019657612,0.02596727,6.854534e-07,0.0018596649,0.00011509657
0.011015266,0.0,0.00048699975,5.066395e-07,0.012484729,0.002878517,0.004162252,0.00012665987,0.08662537,0.166343
8.940697e-08,0.00089484453,0.0013104677,0.99923897,0.0037420392,0.002308786,0.017262965,4.0233135e-06,0.16593641,3.9100647e-05
5.453825e-06,0.0,1.5258789e-05,1.8715858e-05,2.6524067e-06,0.00011226535,0.005357325,1.1920929e-07,0.999972,9.23872e-07
0.9955694,0.0,2.3841858e-07,0.0,0.0,0.00072175264,0.0012817383,1.1920929e-07,0.0016097128,4.2915344e-05
0.6430995,2.6226044e-06,0.00084614754,0.0001847148,1.4007092e-06,0.016626298,0.025996804,0.00020614266,0.0002053976,0.00050121546
0.995756,0.0,1.5497208e-06,3.5762787e-07,5.9604645e-08,0.0011859834,0.0010204315,3.5852194e-05,8.2463026e-05,0.0025328994
0.0,8.863211e-05,0.0021848679,0.9994827,0.7130457,0.9993347,0.21046928,1.8775463e-06,0.026738584,1.1920929e-07
0.09413007,3.2484531e-06,0.10178605,1.4901161e-07,0.0,0.00055748224,0.0023216307,0.008631736,0.00084656477,0.0030720234
5.90086e-06,0.0,1.7285347e-06,0.99999845,6.9737434e-06,0.0001321733,0.00037547946,0.0,2.8312206e-06,2.682209e-07
0.049748868,1.1265278e-05,8.940697e-08,9.23872e-07,0.0,0.0016564727,0.95412934,1.1026859e-06,0.00042584538,0.0001283884
0.07535651,0.0,9.834766e-07,5.9604645e-08,0.0,0.00028970838,0.0013853908,0.97770727,2.4735928e-05,7.18832e-05
2.682209e-07,0.0,7.6293945e-06,0.9999996,0.0018849373,0.00026479363,0.0019302964,2.9802322e-08,0.0058775544,2.9802322e-08
2.5987625e-05,0.29571444,0.0033088624,0.00091454387,7.748604e-07,0.013542175,0.13576576,1.1622906e-06,0.8628684,0.0052493513
2.9802322e-08,0.0,0.00022694468,3.4421682e-05,0.0,2.3543835e-06,4.5001507e-06,1.9669533e-06,5.465746e-05,0.99999744
1.9967556e-06,9.834766e-07,0.00014126301,1.2725592e-05,1.1920929e-07,3.9339066e-05,0.00093087554,5.066395e-07,0.12918001,0.9917927
0.7682039,0.0,3.5762787e-07,6.2584877e-07,8.940697e-08,0.00031855702,0.0016428232,2.9802322e-07,0.5118135,8.314848e-06
8.761883e-06,1.013279e-06,0.00034683943,5.1528215e-05,3.3020973e-05,0.9999994,0.008535475,5.6028366e-05,0.03935364,1.5079975e-05
5.9604645e-08,5.9604645e-08,4.3213367e-05,0.9999885,0.9964397,0.0004836321,0.0022617877,1.7881393e-07,0.003730297,5.9604645e-08
0.068490386,0.0,1.2516975e-06,4.5895576e-06,5.9604645e-08,8.237362e-05,0.00034087896,0.9832964,2.4169683e-05,0.00019598007
0.001889646,0.0,2.9206276e-06,2.682209e-07,2.9802322e-08,0.0007671416,0.0053396523,1.4901161e-07,0.99748194,5.1528215e-05
0.99669194,0.0,2.9802322e-07,4.172325e-07,0.0,0.0008761287,0.0018874407,3.606081e-06,2.220273e-05,0.00010415912
0.26350135,0.0,1.66893e-06,0.00044232607,5.364418e-07,0.00027772784,0.0005169511,0.2790802,0.0021132529,0.00088754296
3.0130148e-05,4.172325e-07,0.9998137,0.00017479062,0.0010822713,0.0015437007,0.0058942437,1.5199184e-06,0.004371792,1.1533499e-05
8.112192e-05,0.0,6.7055225e-06,9.23872e-07,1.1920929e-07,7.399917e-05,0.0013785362,1.7881393e-06,0.99993753,5.9604645e-07
5.8084726e-05,0.00028440356,9.864569e-06,7.3194504e-05,3.606081e-06,0.014213741,0.9781293,3.2782555e-07,0.16115484,0.0056709945
0.009237438,0.0,4.979968e-05,6.8843365e-06,0.0,0.00040596724,0.0009967387,6.330013e-05,0.95326984,0.00829187
3.0100346e-06,6.1541796e-05,0.0041565895,0.00017499924,0.00013285875,0.9999993,0.0058213174,0.0034841597,0.02835241,0.00031882524
0.98108816,0.0,4.827976e-06,5.662441e-07,2.682209e-07,0.00064620376,0.0008254051,0.002185136,0.0024006963,0.00034368038
0.97650886,8.940697e-08,3.3289194e-05,2.95043e-06,2.0861626e-07,0.0016749501,0.007274598,0.000313133,0.00096037984,0.00023123622
0.001463294,2.7447939e-05,0.00025883317,1.0222197e-05,1.3709068e-06,0.000312984,0.0040999353,1.7881393e-07,0.9966932,0.0012610257
0.0010828972,7.748604e-07,5.9604645e-08,0.0,0.0,0.00044944882,0.99882805,0.0,1.5705824e-05,2.56598e-05
0.99796927,0.0,2.3841858e-07,0.0,0.0,0.00020566583,0.0007300973,3.5762787e-07,6.914139e-05,4.9233437e-05
8.165836e-06,2.3841858e-07,1.1444092e-05,0.99999386,2.682209e-07,0.00027891994,0.0060918033,4.7683716e-07,7.31647e-05,1.5795231e-06
0.0003809929,0.0,5.9604645e-08,2.6226044e-06,0.0,3.966689e-05,0.00013622642,0.99986124,2.2441149e-05,4.0233135e-06
0.0002949834,0.0,1.4334917e-05,1.7285347e-06,1.1920929e-07,0.0001463592,0.0022365153,2.9802322e-08,0.99971294,1.4960766e-05
0.66987705,6.28829e-06,9.87649e-05,1.6093254e-06,0.0,0.002158612,0.0034766197,4.172325e-07,0.39104363,0.0024941862
6.9737434e-06,0.0,4.172325e-07,2.861023e-06,2.9802322e-08,3.9726496e-05,0.0003979206,0.99997044,3.0517578e-05,4.3690205e-05
0.00012531877,0.00012010336,3.325939e-05,5.2452087e-06,7.301569e-06,0.004837364,0.97390914,8.672476e-06,0.0036578178,0.0076316297
0.00068613887,0.0,0.0014337599,3.6895275e-05,7.748604e-07,0.00049588084,0.004968941,0.00023940206,0.9954043,0.00031074882
4.7683716e-07,0.0,0.0,4.172325e-07,2.0861626e-07,2.9802322e-08,8.821487e-06,0.0,4.6491623e-06,0.99996626
6.854534e-07,0.000102669,0.0006160736,0.0033467114,9.804964e-06,0.0010163188,0.03264734,0.0,0.99417627,0.0001296103
0.008596659,8.940697e-08,1.0937452e-05,1.8835068e-05,1.4901161e-07,0.00033259392,0.0026830435,3.2663345e-05,0.99195194,0.00028771162
5.6654215e-05,1.0937452e-05,6.479025e-05,0.00012680888,4.142523e-06,0.99998057,0.0053207576,0.00015813112,0.0021132827,8.7440014e-05
0.998837,0.0,2.682209e-07,2.9802322e-08,0.0,0.00042948127,0.0010257959,3.874302e-07,7.1525574e-05,8.973479e-05
0.99296904,0.0,0.0,8.821487e-06,0.0,0.0010105073,0.0008176267,3.874302e-07,0.0021183789,0.0002259016
0.9909931,2.9802322e-08,1.847744e-06,0.0,0.0,0.00055220723,0.00095677376,0.00043535233,0.00040444732,8.568168e-05
0.9886099,0.0,8.332729e-05,1.013279e-06,1.1920929e-07,0.0020822287,0.001070708,0.0003117919,0.0001912713,0.00027057528
1.9222498e-05,0.0,1.1026859e-06,6.0796738e-06,2.0861626e-07,4.0233135e-05,0.0018005967,8.940697e-08,0.9999562,7.748604e-07
0.99728143,2.0861626e-07,2.3543835e-06,8.940697e-08,0.0,0.00055637956,0.001678884,5.364418e-07,8.4489584e-05,0.00078573823
0.00046545267,1.7881393e-06,0.00018560886,7.364154e-05,0.00014078617,0.99981093,0.011043489,4.5001507e-06,0.01685986,3.477931e-05
0.43185773,3.2782555e-07,4.6789646e-06,7.0244074e-05,0.0,0.0029444695,0.0013611615,1.1920929e-07,0.7689587,0.0001873076
0.4375962,0.0,6.28829e-06,1.21593475e-05,1.7881393e-07,0.001075387,0.0011769235,0.8700185,7.05421e-05,0.0022886992
0.003897667,0.96987134,0.0037934184,0.00016704202,5.364418e-07,0.0058889687,0.0016660392,6.2584877e-07,0.008853048,0.008946508
4.3570995e-05,0.999136,0.008826971,0.00956279,6.070733e-05,0.021125644,0.0009887516,5.015731e-05,0.09821066,0.001788199
0.9990502,0.0,5.9604645e-08,0.0,0.0,0.00021749735,0.00039684772,3.874302e-07,9.745359e-06,0.00011605024
0.00022253394,2.05338e-05,0.0011955202,0.0027041733,0.0027398467,0.99929845,0.0127052665,1.22487545e-05,0.07887676,0.000108242035
0.99899995,0.0,1.1920929e-07,0.0,0.0,0.00010815263,0.00041547418,0.0,0.0001462698,0.000107735395
5.662441e-07,1.4901161e-07,3.7431717e-05,0.9999873,0.21505812,0.000918895,0.0033507943,0.0,0.067537725,8.940697e-08
0.00018757582,2.9802322e-08,0.00022995472,7.900596e-05,3.963709e-06,0.00020834804,0.0071783066,3.0696392e-06,0.9997847,3.3974648e-06
0.90457404,0.0,2.682209e-07,0.0,0.0,2.643466e-05,0.00041279197,0.062716365,8.946657e-05,0.0044789314
0.0037370622,0.0,1.4901161e-05,0.00014993548,2.7120113e-06,0.0006968379,0.0038903654,1.2695789e-05,0.989786,9.486079e-05
0.9955572,0.0,7.748604e-07,5.364418e-07,8.940697e-08,0.001233995,0.0009899437,7.4505806e-07,9.724498e-05,0.0013595223
0.00046643615,2.9802322e-08,0.0063456893,8.3476305e-05,0.0001245439,0.00025877357,0.0033095777,6.2286854e-06,0.99864674,0.00011116266
7.688999e-06,2.9802322e-08,7.688999e-06,0.99995136,2.0861626e-06,0.00039166212,0.0017385185,0.0,0.08100295,1.2814999e-05
0.9954102,1.4901161e-07,2.8908253e-06,2.9802322e-08,5.9604645e-08,0.0011715889,0.0043385923,1.1920929e-06,0.0001617074,0.0008453727
0.07975453,0.0,7.748604e-07,6.6161156e-06,4.7683716e-07,0.0007272363,0.0023539364,2.9802322e-07,0.98487985,4.3094158e-05
3.33786e-06,4.7385693e-06,0.000634104,8.922815e-05,1.0728836e-06,0.9999994,0.01688528,7.241964e-05,0.008081138,1.2218952e-06
0.84198916,0.0,5.00679e-06,7.69496e-05,1.2218952e-06,0.0014492273,0.0009873807,2.9802322e-07,0.17224386,0.00013157725
0.004003525,5.364418e-07,0.00011315942,7.1823597e-06,1.4901161e-07,0.0009512305,0.007109493,1.7881393e-07,0.99567866,0.00025236607
6.7055225e-06,0.0,2.8312206e-06,0.99992794,1.7881393e-07,0.00027924776,0.0016970634,5.8084726e-05,7.471442e-05,2.9802322e-07
0.7681048,0.0,8.046627e-07,1.9967556e-06,5.662441e-07,0.0013427436,0.00066047907,0.0054827034,0.012154311,0.00016370416
1.1920929e-07,1.3500452e-05,0.00021788478,0.99995893,0.00024816394,0.0005080998,0.15079576,1.6987324e-06,6.425381e-05,1.41859055e-05
5.9604645e-08,0.0,1.1622906e-06,0.99999976,7.18832e-05,0.00019228458,0.0027173162,0.0,0.0039859116,2.9802322e-08
0.00010046363,1.3411045e-06,2.3245811e-06,1.31726265e-05,2.3841858e-07,0.0022439957,0.9097524,0.28195858,0.00039291382,5.3852797e-05
6.16312e-05,2.3841858e-07,3.8653612e-05,1.6093254e-06,2.5629997e-06,0.00011968613,0.0020831823,1.2040138e-05,0.052324295,0.9521909
3.5762787e-07,0.0,2.092123e-05,0.99999,0.004874021,0.0001860559,0.0018990934,0.0,0.0015689135,3.0696392e-06
0.5119978,4.976988e-06,5.185604e-06,0.00027510524,4.7683716e-07,0.0031089783,0.001306951,2.861023e-06,0.6642301,0.00086817145
5.9604645e-08,0.9996346,4.2408705e-05,0.6143204,3.606081e-06,0.0025547743,0.00035086274,0.0,0.97964823,5.453825e-06
1.0728836e-06,8.940697e-08,2.771616e-06,0.99999833,3.2275915e-05,0.00025820732,0.00079092383,2.9802322e-08,1.2457371e-05,5.9604645e-07
0.0066257417,2.9802322e-08,1.6868114e-05,5.8710575e-06,4.172325e-07,0.00022685528,0.00046098232,3.874302e-07,0.41230774,0.6139543
0.0,0.0,2.4408102e-05,0.999999,0.0012292564,8.249283e-05,0.0011202693,7.987022e-06,4.7028065e-05,2.0861626e-06
0.0001321733,1.937151e-06,1.937151e-06,1.7881393e-07,8.34465e-07,0.005117178,0.899963,2.9802322e-08,0.79263836,0.0045389533
0.00034967065,1.7881393e-07,0.9968476,3.0219555e-05,0.0008057356,0.0010469556,0.0047403276,4.172325e-07,0.020163178,7.224083e-05
0.992983,0.0,2.3841858e-07,5.9604645e-08,0.0,0.00045457482,0.0005672574,0.0001733005,8.4102154e-05,2.3245811e-05
0.97653437,8.940697e-08,1.5795231e-06,1.5169382e-05,0.0,0.0014037788,0.0014876425,2.6524067e-06,0.07931721,6.1273575e-05
0.00081294775,3.2186508e-06,0.0018113554,0.00048664212,1.0967255e-05,0.996289,0.00375399,0.0050671697,0.00089994073,8.666515e-05
7.018447e-05,0.0,2.9802322e-08,1.7881393e-07,0.0,0.0,1.4543533e-05,0.0,3.1083822e-05,0.9998231
0.9981997,0.0,2.3841858e-07,0.0,0.0,0.00024110079,0.00090515614,1.013279e-06,0.00011762977,2.3245811e-06
4.0382147e-05,0.0,6.556511e-07,7.3611736e-06,0.0,0.0006225705,0.0039762557,0.0,0.9998597,4.7683716e-07
0.87889254,2.9802322e-08,0.0002336204,0.0002194345,0.00017860532,0.00831458,0.002159536,1.2725592e-05,0.005197257,0.0029491484
0.98020947,0.0,3.5762787e-07,1.013279e-06,0.0,0.0004374683,0.00069987774,1.4901161e-07,0.03319031,2.2619963e-05
0.00020596385,0.00044193864,6.2584877e-07,6.735325e-06,1.4901161e-06,0.0022580028,0.9983851,2.9802322e-08,0.03926024,0.001180917
0.13791212,2.0861626e-07,0.8229778,9.23872e-07,1.013279e-05,0.0024276674,0.026951164,0.0004964173,0.00062692165,0.0001475513
0.98517334,0.0,1.4990568e-05,0.0,5.9604645e-08,0.00026512146,0.0009787381,0.0005658865,7.945299e-05,0.00023832917
0.00013768673,4.7683716e-07,0.0031912029,3.33786e-06,0.011906087,0.0007556677,0.005649835,0.0009652674,0.00021967292,0.3665747
2.849102e-05,0.98581696,0.0010095537,0.0017411709,1.0162592e-05,0.015761733,0.013229817,5.9604645e-08,0.58068115,0.021629214
0.9753623,3.5762787e-07,2.3812056e-05,2.9802322e-07,1.7881393e-07,0.0008164346,0.0011565983,1.847744e-06,0.00043573976,0.059738427
1.013279e-06,1.7285347e-06,7.82907e-05,0.9999672,0.012546957,0.0003297627,0.0050531626,0.0,0.49279207,4.172325e-07
0.038189143,0.0,0.8683861,2.0861626e-07,0.0005888343,0.0020730197,0.0029870272,0.00016871095,0.020504385,0.00013625622
0.060863465,0.0,1.1473894e-05,4.7683716e-06,5.9604645e-08,0.00066435337,0.0012373924,1.0699034e-05,0.9252882,0.000754416
0.0,0.00029721856,0.9226197,0.9953707,1.3977289e-05,0.00013276935,0.029084027,0.0,0.99950266,0.0
0.8111117,0.0,0.00013673306,1.4781952e-05,4.7683716e-07,0.00034239888,0.0005648434,0.2045233,0.000102221966,0.005891323
8.195639e-06,1.6987324e-06,0.9736047,9.298325e-06,3.287196e-05,0.00047290325,0.022116363,4.6491623e-06,0.9938834,1.32620335e-05
0.9698638,0.0,2.1755695e-06,1.1920929e-07,5.6028366e-06,0.0011614561,0.0013466775,5.9604645e-07,0.0022219718,0.00082212687
0.0,0.00023317337,0.00028023124,0.99984145,0.00013649464,0.0009288788,0.020194352,6.3478947e-06,0.96682703,1.7881393e-07
5.00679e-06,0.0,1.6391277e-06,0.999998,1.1920929e-07,0.00016579032,0.0010371804,6.2584877e-07,1.564622e-05,2.3841858e-07
0.000103622675,0.00014865398,0.0007919669,1.9729137e-05,2.9802322e-07,0.00026208162,0.04273814,1.4901161e-07,0.99935997,3.796816e-05
0.0,0.9835061,0.004658401,0.99952626,0.0363006,0.27699408,0.0042340457,5.9604645e-08,0.003625989,2.0861626e-06
0.880514,0.0,6.377697e-06,2.938509e-05,6.556511e-07,0.00765422,0.0013098717,0.0012102127,0.0011800528,0.0056838095
9.506941e-06,0.98386014,0.0026618242,0.0020905733,2.115965e-06,0.00378564,0.023094893,1.1920929e-07,0.9315748,0.0015833676
0.9982978,0.0,5.9604645e-08,2.3841858e-07,0.0,0.00075367093,0.0007415414,5.9604645e-08,0.0001757443,3.1024218e-05
0.00022622943,0.0,6.201863e-05,2.4437904e-06,6.854534e-07,7.030368e-05,0.0025489032,2.1725893e-05,0.9994161,4.440546e-06
0.00025191903,7.0035458e-06,0.0035063624,1.4156103e-05,1.0728836e-06,0.00031650066,0.0045249164,1.31726265e-05,0.9975604,0.0017591417
2.503395e-06,0.9959712,0.00033950806,0.9122059,0.0008857846,0.015620172,0.00054749846,0.0,0.18577206,0.00032564998
0.72635746,0.0,8.34465e-07,1.1891127e-05,0.0,0.00084638596,0.0006420016,3.427267e-05,0.23956001,0.00010153651
1.1920929e-07,4.1127205e-06,0.0013335347,0.036027223,0.0013946295,1.0,0.008131355,0.00015512109,0.03724435,2.861023e-06
0.9685676,0.0,7.748604e-07,1.1920929e-07,0.0,0.00059360266,0.00041869283,0.0031933486,5.5491924e-05,0.0018231869
2.413988e-06,0.0,1.5050173e-05,1.5079975e-05,5.9604645e-08,0.000106066465,0.0035390854,0.064519614,0.998633,9.536743e-06
3.606081e-05,0.9834894,0.0092843175,0.008459121,6.5863132e-06,0.0060871243,0.008592695,5.364418e-07,0.96277815,0.0007844269
0.9906123,5.9604645e-08,4.8577785e-05,0.0,0.0,0.0007223189,0.0010859966,4.3809414e-06,0.000101059675,0.007628888
0.00014451146,0.00092697144,0.0012120306,0.0006946027,2.259016e-05,0.99102485,0.082548946,7.56979e-06,0.36243707,0.0010025501
1.04010105e-05,2.9802322e-08,7.814169e-05,5.6028366e-06,2.9802322e-08,6.8843365e-05,0.002426654,3.5762787e-07,0.9999742,3.5464764e-06
2.3841858e-05,0.9811549,0.0021368861,0.2611345,0.00012934208,0.025968552,0.0050415695,4.2021275e-06,0.8501948,0.0007298887
3.33786e-06,0.00017017126,0.0002284944,0.110747695,0.0020282865,0.9985672,0.03940621,0.00033327937,0.008645773,0.0014453828
1.4036894e-05,7.748604e-07,0.00010788441,5.185604e-06,1.1444092e-05,0.000111579895,0.002043128,0.0074708164,0.014636993,0.9440361
0.0035078228,4.6998262e-05,0.0011522174,0.8970287,1.5974045e-05,0.0015389621,0.0034300685,7.7188015e-06,0.79292494,0.0003553629
2.9563904e-05,0.0,3.1083822e-05,4.8577785e-06,1.1920929e-07,0.00017747283,0.0034170449,5.185604e-06,0.9999114,2.977252e-05
3.9041042e-06,0.0,0.0001758635,1.1086464e-05,1.2516975e-06,4.8160553e-05,0.0046406984,2.1725893e-05,0.9999528,9.030104e-06
4.4703484e-06,5.9604645e-08,2.6077032e-05,0.9999978,5.9604645e-08,0.00033694506,0.00399673,1.7881393e-07,0.001357466,2.682209e-07
9.658933e-05,1.8179417e-06,0.004695505,2.2798777e-05,0.0002528429,0.9998287,0.004203409,0.0002374351,0.085659236,0.0012232959
8.094311e-05,2.115965e-06,0.9980871,5.2452087e-06,4.3600798e-05,0.0021285117,0.0045561194,9.23872e-07,0.09890652,2.1219254e-05
0.89848614,8.940697e-08,3.1888485e-06,6.0498714e-06,8.34465e-07,0.002180487,0.0015436113,0.00014442205,0.0012365282,0.019387037
8.586049e-05,0.00038027763,2.771616e-06,7.748604e-07,2.682209e-07,0.015183508,0.9666014,1.5497208e-06,0.0005583763,0.0012045205
0.99401754,0.0,3.874302e-07,8.940697e-08,2.9802322e-08,0.0010516346,0.0007625818,4.7683716e-07,0.0006503761,0.0006877482
3.33786e-06,2.9802322e-08,4.7683716e-07,0.9999917,8.940697e-08,0.0008087754,0.00440228,0.0,0.003706485,0.0
0.009788126,6.2584877e-06,0.0002836287,5.1170588e-05,7.480383e-06,0.0020732284,0.18039101,5.7399273e-05,0.009899646,0.54922175
3.0696392e-05,0.0,7.0035458e-06,1.9580126e-05,8.940697e-08,0.00012764335,0.0042001903,4.172325e-07,0.9999603,6.2584877e-07
0.0077830255,0.0,1.7285347e-06,2.3841858e-06,5.9604645e-08,0.0011701584,0.0017913878,2.9802322e-08,0.96743894,0.028706819
8.940697e-08,0.03902468,0.45256823,0.99317014,0.00095272064,0.0013488233,0.10244116,8.940697e-08,0.9851371,6.2286854e-06
0.99717796,0.0,1.7881393e-07,8.940697e-08,0.0,0.00041395426,0.0011792779,3.6358833e-06,4.711747e-05,8.2463026e-05
0.97392553,2.682209e-07,1.3709068e-05,4.7683716e-07,8.940697e-08,0.0034987032,0.011661708,3.993511e-06,0.0019218326,0.0019777715
0.9763993,0.0,6.2584877e-07,6.854534e-06,0.0,0.0018038154,0.0024773479,2.413988e-06,0.00247553,0.00048536062
0.0010509491,2.9802322e-08,3.0696392e-06,2.1457672e-06,1.7523766e-05,0.00010892749,0.008467883,0.0,0.99868774,3.1143427e-05
0.53714347,5.9604645e-08,1.4841557e-05,4.440546e-06,4.5895576e-06,0.0012900829,0.0050768256,1.8775463e-06,0.75990057,0.0003811121
0.0005635917,0.0,6.824732e-06,2.8908253e-06,5.9604645e-08,7.688999e-05,0.0015893579,0.9989035,0.00022909045,0.00020572543
0.9971235,0.0,1.1920929e-06,1.013279e-06,0.0,0.0012276173,0.0011621416,7.748604e-07,0.00015589595,7.5519085e-05
1.1622906e-06,0.00034552813,0.9731232,0.10898197,0.003939122,0.99491805,0.021915346,7.3850155e-05,0.2800524,7.31647e-05
0.5746777,0.0,1.4901161e-07,1.013279e-06,1.7881393e-07,0.00038167834,0.0010465682,8.34465e-07,0.6147777,3.311038e-05
0.77462727,2.4437904e-06,0.0035215318,2.2619963e-05,3.194809e-05,0.00092709064,0.004724622,2.5123358e-05,0.03789231,0.002030313
0.009150714,5.9604645e-08,0.0020666718,1.0222197e-05,0.0044761,0.00083082914,0.005371392,9.119511e-06,0.96880865,0.0011450052
3.1501055e-05,3.874302e-07,6.4074993e-06,7.1674585e-05,8.940697e-08,0.00014814734,0.0024894476,1.1026859e-06,0.99983084,0.00011011958
0.0079651475,2.3841858e-07,2.771616e-06,1.7911196e-05,0.0001630485,0.002027303,0.68225145,3.7252903e-06,0.0002078116,4.428625e-05
0.011126488,0.0,6.8843365e-06,1.7881393e-07,2.9802322e-08,0.00062426925,0.004013449,2.3841858e-07,0.9967711,3.4332275e-05
0.98212993,0.0,3.9041042e-06,6.8843365e-06,0.0,0.0008689761,0.00049445033,5.3048134e-06,0.000121861696,0.0033302605
0.98814046,2.9802322e-08,1.6093254e-06,4.7683716e-07,1.4901161e-07,0.0009840429,0.00095167756,2.965331e-05,0.00012999773,0.008252054
0.0020393431,0.0,2.0861626e-07,4.7683716e-07,3.874302e-07,0.0008160174,0.0026264489,0.9947417,0.00015002489,0.0006837249
0.00017139316,1.2516975e-06,1.5228987e-05,0.0006079674,2.0623207e-05,0.99960315,0.008117199,0.00023651123,0.000118523836,8.0019236e-05
0.0005476475,9.23872e-07,0.00024813414,2.4616718e-05,2.682209e-07,0.00062838197,0.020864993,0.0006724,0.997769,2.4825335e-05
0.0018070936,3.5762787e-07,0.000905931,4.142523e-06,6.881356e-05,0.00025576353,0.0075434446,1.013279e-06,0.99571955,0.0004761219
1.4901161e-07,1.2040138e-05,0.98791707,5.301833e-05,7.301569e-06,0.0007085204,0.015423745,5.9604645e-08,0.99931,5.662441e-07
0.0,6.7949295e-05,1.0848045e-05,0.99903053,3.1292439e-06,0.00603354,0.23631445,0.0,0.9372561,5.3346157e-06
1.4901161e-07,0.0,1.6987324e-06,0.0,0.0,0.0,6.943941e-06,0.0,1.1920929e-07,0.9999995
0.10265872,1.1920929e-07,0.0013830066,9.298325e-06,0.0009353459,0.0007221997,0.006365031,7.6293945e-06,0.83791876,0.0016632974
0.028494298,2.682209e-07,0.00056934357,4.8577785e-06,1.9490719e-05,0.0018666387,0.011071235,0.00065016747,0.022869408,0.102844834
0.9937177,0.0,1.3113022e-06,1.7881393e-07,8.940697e-08,0.00022980571,0.0014567375,8.738041e-05,4.3958426e-05,0.00015503168
0.9731822,0.0,2.4735928e-06,9.23872e-07,8.940697e-08,0.0006414056,0.0015855134,0.00026226044,0.00065913796,0.0064903796
0.00020468235,0.4520434,0.014126241,0.0006566644,0.00076439977,0.06526792,0.17944631,0.00020623207,0.13747603,0.21512109
0.0001578033,3.874302e-07,0.0003517568,1.8447638e-05,4.014373e-05,0.00023040175,0.0039744675,1.564622e-05,0.047982723,0.8707783
1.7881393e-07,2.682209e-07,0.99969685,0.0005502403,0.019367814,0.00010275841,0.0020406246,4.172325e-07,0.99045825,3.874302e-07
0.8080169,1.2814999e-06,0.20879784,4.0233135e-06,1.1622906e-06,0.0008213818,0.00415501,0.0020859241,0.0010725856,0.00061279535
2.9802322e-07,0.0003373623,0.8169545,0.9985956,7.5101852e-06,0.00037148595,0.0031777322,0.0,0.20117319,0.00039058924
4.336238e-05,0.99518883,0.002715528,0.009512007,1.2814999e-06,0.022865206,0.0051747262,1.9967556e-06,0.17315707,0.0023640692
3.4421682e-05,0.0,3.0100346e-06,0.000106185675,4.172325e-07,0.00072157383,0.010548264,7.748604e-07,0.99976957,2.8640032e-05
8.6426735e-07,2.1666288e-05,0.998842,0.0007915199,1.1026859e-05,0.13045987,0.0016054511,2.0861626e-07,0.107764095,1.1920929e-06
0.755622,0.0,1.2814999e-06,8.940697e-07,0.0,0.0010942519,0.00076553226,5.403161e-05,0.40117228,2.732873e-05
0.5319174,0.0,1.4424324e-05,1.8179417e-06,6.6161156e-06,0.00042125583,0.0007133186,0.12864542,0.011781633,0.0007356107
0.98975646,0.0,8.940697e-08,0.0,0.0,9.536743e-06,0.00063955784,0.0009444952,1.0728836e-06,2.1457672e-06
1.4901161e-07,5.364418e-07,0.001213491,2.5957823e-05,9.179115e-06,0.99999666,0.0028917491,5.0663948e-05,0.9461567,1.1742115e-05
0.36961818,8.940697e-08,4.440546e-06,2.8729439e-05,4.4703484e-07,0.0012197793,0.002349466,1.1950731e-05,0.76615804,6.172061e-05
0.0028510392,0.0,1.9460917e-05,7.0631504e-05,3.2782555e-07,0.00038811564,0.0005053878,0.0010384619,0.9705056,0.0028918982
0.0146689415,0.0,2.014637e-05,8.940697e-08,2.5331974e-06,0.0017771423,0.005188614,8.940697e-06,0.91649187,0.0005199611
8.940697e-08,4.6789646e-06,0.0016843379,0.00012812018,7.1406364e-05,0.99999976,0.0037338436,1.5974045e-05,0.75011396,1.1026859e-05
8.6426735e-07,0.0022132099,0.005865991,0.044701844,0.00023013353,0.2974908,0.7482595,2.1368265e-05,0.001444459,0.003021717
0.49282336,1.1563301e-05,0.00013577938,2.387166e-05,1.1920929e-07,0.00073188543,0.0006451607,0.00052821636,0.00040397048,0.8122689
2.3394823e-05,0.0,2.4914742e-05,0.0004505515,3.4958124e-05,0.0009794235,0.0013929307,0.9978198,0.00020614266,0.0066420436
1.4901161e-07,0.0,6.943941e-06,0.0065910816,0.99907756,6.0617924e-05,0.0048681498,5.930662e-06,0.017217994,2.3394823e-05
4.7683716e-07,0.0001975596,0.004855752,2.193451e-05,0.0023054779,0.9339931,0.28742316,1.2010336e-05,0.17956713,0.016319692
0.9820012,0.0,1.2516975e-06,2.7418137e-06,4.172325e-07,0.0029279292,0.0011167228,7.748604e-07,0.0045245886,0.00015226007
4.7683716e-07,0.0,2.9802322e-07,0.99999833,1.4901161e-07,0.00010186434,0.00090023875,0.0,0.0068006516,0.0
0.00053942204,5.751848e-06,0.04878506,5.1796436e-05,0.0142146945,0.0005763769,0.008301824,3.555417e-05,0.9538568,0.004082918
0.00083449483,1.7285347e-06,0.99064565,2.5629997e-06,0.0038470626,0.002651602,0.0585151,0.0025775433,0.07225141,0.00077423453
0.002696067,3.4064054e-05,7.748604e-07,4.172325e-07,0.0,0.0013524294,0.99276865,5.7816505e-06,0.0018039048,0.00043609738
0.40189055,2.3841858e-06,0.00013011694,3.1113625e-05,1.013279e-06,0.0057926476,0.008113623,1.6391277e-06,0.47614285,0.0029346347
1.1563301e-05,0.00013178587,0.0046418607,0.0004683733,0.00064730644,0.9390232,0.11972186,0.000764519,0.010846317,0.029272348
2.0384789e-05,1.2606382e-05,4.7385693e-06,8.72314e-05,3.0994415e-05,0.40328074,0.84262323,3.1888485e-06,0.017434925,0.0027000606
0.9714788,8.940697e-08,2.4735928e-06,4.8935413e-05,2.0861626e-07,0.0035039783,0.00095173717,1.4454126e-05,0.0006069839,0.011560559
0.013765782,1.2129545e-05,0.0010536313,4.556775e-05,2.4586916e-05,0.001478672,0.012961149,3.6358833e-06,0.09362301,0.826751
5.477667e-05,2.115965e-06,0.00048670173,9.5784664e-05,0.00013366342,0.99948907,0.011256248,3.0100346e-05,0.25799274,0.00051251054
0.99413204,0.0,3.5762787e-07,2.9802322e-07,0.0,0.0024469197,0.0015670359,7.6800585e-05,0.0002812147,4.2706728e-05
0.0,2.8014183e-06,0.9974346,0.9995277,0.00014957786,0.000749737,0.0032294393,0.0,0.016086608,1.1920929e-07
0.6139226,0.0,8.940697e-07,1.21593475e-05,2.9802322e-08,0.0012755394,0.0016272664,7.748604e-07,0.5232235,8.445978e-05
0.7535405,0.0,6.1392784e-06,2.592802e-06,7.1525574e-07,0.0007953644,0.00056532025,0.582659,0.0002799034,0.00087583065
0.0006259084,0.0,4.8995018e-05,3.20673e-05,1.4901161e-06,0.00017163157,0.0018755496,0.48878834,8.177757e-05,0.40530565
0.02776593,0.0,2.4288893e-05,1.6778708e-05,0.00010180473,0.0020852685,0.005753547,8.6426735e-06,0.9271244,0.003617406
0.98392457,7.778406e-06,2.527237e-05,5.662441e-07,5.9604645e-08,0.0012861192,0.0063537657,6.943941e-06,0.0004885495,0.0043537915
0.6525016,2.9802322e-08,6.8217516e-05,2.3841858e-07,6.8068504e-05,0.00070911646,0.0026407242,6.854534e-07,0.0012389123,0.46103773
0.00021800399,5.9604645e-08,6.8455935e-05,0.00064852834,0.9903749,0.0015025139,0.006201029,2.3841858e-07,0.008135706,0.004823357
0.99781764,0.0,2.0861626e-07,1.7881393e-07,0.0,0.0006609261,0.00077968836,3.8146973e-06,3.0249357e-05,9.453297e-05
0.00034719706,0.23969266,0.09651464,0.0008634627,0.00018167496,0.0042924285,0.091820925,4.082918e-06,0.81055284,0.018906236
0.9716098,8.940697e-08,7.1525574e-07,4.7683716e-07,2.9802322e-08,0.000351429,0.0007519126,8.940697e-08,0.030258477,7.736683e-05
0.00024664402,1.1920929e-07,1.3113022e-06,2.682209e-07,5.066395e-07,9.214878e-05,0.012771785,0.0,0.980882,0.011045963
1.1920929e-07,0.5404575,0.01798299,0.9999067,0.0013217628,0.014384955,0.1037589,1.7881393e-07,0.75506234,1.40964985e-05
0.98960173,0.0,2.5629997e-06,0.0,0.0,0.0012300909,0.00082585216,2.5480986e-05,0.00027024746,0.00036928058
0.991119,0.0,1.0371208e-05,0.0,0.0,9.384751e-05,0.0025302172,0.0005892813,3.4868717e-06,0.00020956993
0.99730825,0.0,0.0,1.4901161e-07,0.0,0.00044038892,0.0007146895,1.5199184e-06,0.00028064847,2.8580427e-05
0.94873047,0.0,3.6656857e-06,3.0398369e-06,1.7881393e-07,0.0017314851,0.0020566285,2.9802322e-07,0.0043442845,0.0011728406
0.12855133,5.9604645e-08,1.0997057e-05,9.5665455e-06,9.23872e-07,0.0011726022,0.0011083186,1.1026859e-06,0.1500754,0.70891017
0.97294337,8.940697e-08,0.00016716123,4.4703484e-07,2.9802322e-08,0.0019331276,0.007870078,7.876754e-05,0.0010475516,0.002672702
0.9940397,1.7881393e-07,5.662441e-07,1.5795231e-06,0.0,0.00033542514,0.00014862418,2.0861626e-07,0.0006328523,0.00204736
4.7683716e-07,0.0,0.0,4.172325e-07,2.0861626e-07,2.9802322e-08,8.821487e-06,0.0,4.6491623e-06,0.99996626
4.4703484e-07,0.0,0.0,4.172325e-07,2.0861626e-07,2.9802322e-08,8.761883e-06,0.0,4.6491623e-06,0.99996626
1.758337e-06,0.99026054,0.023091108,0.67560756,0.00022563338,0.06882772,0.05493045,2.0563602e-06,0.023431242,0.0006130934
0.00019747019,0.99649686,0.0024196804,0.003305316,1.4007092e-06,0.010492861,0.009975016,1.9073486e-06,0.022078991,0.0020798147
4.1544437e-05,0.0,0.010910362,7.903576e-05,0.99555683,0.0008389354,0.0022759736,2.3841858e-07,0.14048302,0.0012681782
0.9842293,0.0,5.9604645e-08,1.1324883e-06,0.0,0.0019402504,0.0013822317,6.312132e-05,0.00064989924,0.00022596121
1.7285347e-06,1.7881393e-07,8.59797e-05,0.000102967024,2.3841858e-07,0.0004401803,0.035055608,3.5762787e-07,0.9999581,1.2487173e-05
0.99323845,0.0,4.9471855e-06,4.7683716e-07,2.9802322e-08,0.0008237362,0.0012100637,7.1525574e-07,0.00044730306,0.0003938377
2.503395e-06,8.940697e-08,0.00018242002,0.999422,0.001453042,0.00021207333,0.0035452843,3.5762787e-07,7.4207783e-06,0.000104129314
3.874302e-07,5.364418e-07,0.9962306,0.0004709363,0.8403777,0.0001770258,0.004442066,1.4007092e-06,0.99479806,7.56979e-06
1.3709068e-06,5.751848e-06,0.00073087215,7.4356794e-05,7.390976e-06,0.00032269955,0.0013820231,8.34465e-07,0.002249539,0.9968358
4.4703484e-07,0.0,0.0,4.172325e-07,2.0861626e-07,2.9802322e-08,8.761883e-06,0.0,4.6491623e-06,0.99996626
7.7068806e-05,2.9802322e-08,1.2040138e-05,0.99982226,1.1920929e-07,0.00018924475,0.003445506,7.1525574e-07,2.43783e-05,3.6358833e-06
0.9385972,0.0,3.963709e-06,8.046627e-07,1.1920929e-07,0.005728185,0.004918754,0.001593113,0.00043591857,0.0013498068
0.014693528,0.0,1.6540289e-05,9.030104e-06,0.0,0.00016972423,0.0018683374,1.0251999e-05,0.99544877,2.783537e-05
0.99876106,0.0,2.3841858e-07,0.0,5.9604645e-08,0.0010570884,0.0011393726,7.4505806e-07,1.4454126e-05,9.0420246e-05
0.9701878,0.0,6.377697e-06,1.013279e-06,0.0,0.003620416,0.001917541,9.4771385e-06,0.0003890097,0.0001488328
0.00066140294,6.1392784e-06,3.3199787e-05,9.357929e-06,2.6524067e-06,0.0043026805,0.9882419,0.0016001761,0.046322137,0.0006104708
0.036053687,5.364418e-07,0.00023382902,0.20128521,0.00069984794,0.0030468404,0.0037726164,2.4735928e-06,0.42252803,0.014931262
0.0046693385,1.4901161e-07,5.155802e-06,2.9802322e-06,6.854534e-07,0.00033968687,0.0059269667,3.5762787e-07,0.99858767,9.745359e-06
0.9909272,0.0,4.172325e-07,1.1622906e-06,0.0,0.0019431412,0.0019150674,0.0005608499,0.000423342,2.3186207e-05
1.7881393e-07,0.0003195703,0.50982744,0.9998715,0.000838995,0.002334267,0.0041737854,0.0,0.11523339,2.95043e-06
0.0,0.0013383925,0.002514273,0.9999898,0.0015479922,0.0008639395,0.032532334,0.0,0.85575575,1.7881393e-07
1.7881393e-07,1.8179417e-06,0.9979896,0.99762565,1.7911196e-05,0.0009599328,0.0033171475,8.940697e-08,0.0008941591,6.1392784e-06
0.97461337,8.940697e-08,0.00011143088,6.854534e-07,3.5762787e-07,0.0009165406,0.0015619993,8.2433224e-05,0.024534583,0.00049877167
8.2969666e-05,0.0,2.9802322e-07,1.9967556e-06,0.0,0.0009287596,0.0034062266,1.5795231e-06,0.99925095,2.0354986e-05
0.007845789,0.00010237098,1.5109777e-05,1.7255545e-05,5.364418e-07,0.002337426,0.044320375,1.4901161e-07,0.9738294,0.0055259466
0.0024714768,1.7881393e-07,9.119511e-06,6.312132e-05,4.7683716e-07,0.00037065148,0.005825728,1.4007092e-06,0.99760354,0.00012475252
0.99542737,0.0,4.4703484e-07,2.9802322e-08,5.9604645e-08,0.00039449334,0.0009160936,2.4437904e-06,0.0001706183,2.9236078e-05
8.940697e-08,0.010927737,0.00095644593,0.9999552,0.00033804774,0.0018300712,0.01733011,0.0,0.85808194,1.3709068e-06
0.0,9.498e-05,0.91628337,9.328127e-06,1.4811754e-05,0.0005645454,0.55069077,1.4007092e-06,0.99910414,3.5762787e-06
0.33864102,8.940697e-08,1.1324883e-06,9.208918e-06,0.0,0.00044828653,0.0036677122,7.033348e-06,0.93781793,1.0222197e-05
0.9977523,0.0,4.4703484e-07,1.7881393e-07,0.0,0.000849396,0.0024445355,9.000301e-06,6.5654516e-05,4.7385693e-06
8.34465e-07,2.9802322e-07,6.330013e-05,0.9999959,4.631281e-05,0.00036215782,0.009059966,0.0,0.13041094,2.6524067e-06
2.3841858e-07,3.5762787e-07,0.018877238,0.999992,0.0028058887,0.00044608116,0.009356141,5.9604645e-08,0.000844568,1.4603138e-06
9.024143e-05,0.99390215,0.0011113286,0.00034946203,1.0728836e-06,0.010095984,0.018749803,3.5762787e-07,0.003818661,0.004098892
0.00045597553,8.940697e-08,0.000104665756,4.4703484e-07,1.7881393e-07,1.0579824e-05,0.0022221208,1.4066696e-05,0.9997237,2.0861626e-07
8.016825e-06,0.20726767,4.2527914e-05,0.003754586,1.758337e-06,0.12590277,0.34613907,2.3841858e-07,0.2899813,0.020948946
0.026107162,0.8399599,0.0002399385,7.092953e-05,1.4901161e-07,0.007388264,0.004508972,5.9604645e-08,0.0049954057,0.006384164
0.98581684,0.0,5.364418e-07,1.013279e-06,5.9604645e-08,0.001575768,0.0011562109,1.4901161e-07,0.005643606,0.00019434094
4.4703484e-07,0.0,0.0,4.172325e-07,2.0861626e-07,2.9802322e-08,8.761883e-06,0.0,4.6491623e-06,0.99996626
0.009116918,6.1392784e-06,9.012222e-05,0.002236247,1.66893e-06,0.0012149215,0.0010184646,1.9669533e-06,0.59593284,0.47876638
6.5892935e-05,0.0,0.00010544062,3.6805868e-05,2.3841858e-07,0.0007033348,0.010253727,0.010507911,0.9984524,1.8298626e-05
4.082918e-06,5.9604645e-08,0.00017172098,4.9740076e-05,0.0035434961,0.0004130602,0.0024792552,2.9802322e-08,0.008611292,0.9747324
0.9981808,0.0,2.0861626e-07,2.9802322e-08,0.0,0.0007791519,0.001141578,7.1525574e-07,9.936094e-05,6.29127e-05
0.9979427,0.0,5.662441e-07,0.0,0.0,0.00070756674,0.0021482706,4.7683716e-06,2.2411346e-05,5.209446e-05
0.0025025606,4.172325e-07,5.155802e-06,1.6540289e-05,0.0,0.0004721284,0.00202173,7.748604e-07,0.99799395,7.683039e-05
0.00043949485,0.032390207,0.2598602,6.7681074e-05,7.0631504e-06,0.0055941343,0.026605666,2.5331974e-06,0.011876911,0.23897743
7.5399876e-06,0.0,3.6358833e-06,4.172325e-06,8.940697e-08,0.0005827248,0.0048111975,0.0008814931,0.99806273,0.0011022091
3.963709e-06,0.007203102,0.0055036843,0.08545193,0.010144055,0.99955773,0.2644571,0.0010509491,0.40650573,0.00039830804
3.1381845e-05,1.8775463e-06,0.002227664,3.7282705e-05,1.1593103e-05,0.07052174,0.031209856,8.523464e-05,0.6377967,0.019912899
0.008646339,1.1920929e-07,1.3709068e-06,2.7120113e-05,1.4901161e-07,0.0008048713,0.0027650297,6.854534e-07,0.99388015,0.00076806545
0.97662294,5.364418e-07,0.0011845827,1.7881393e-07,2.9802322e-08,0.00067159534,0.0014912486,5.4597855e-05,0.00041270256,0.0016201138
0.008774906,3.5762787e-07,0.99339855,2.3841858e-07,4.4703484e-07,0.00030845404,0.0019501448,6.2286854e-06,0.00019696355,7.942319e-05
0.98922324,0.0,5.751848e-06,5.662441e-07,2.9802322e-08,0.00222677,0.004168093,9.4771385e-06,0.00082573295,5.4955482e-05
0.71017575,5.9604645e-08,1.847744e-06,1.7762184e-05,0.0,0.0015275478,0.001239866,0.002960831,0.31039768,0.0013372302
8.225441e-06,0.98987126,0.0036029518,0.021331966,0.0014893711,0.0070621967,0.004442513,2.3841858e-07,0.78559005,0.0031644404
4.529953e-06,0.0,3.3974648e-06,0.9999912,2.3841858e-07,0.00012150407,0.0006583631,8.940697e-08,1.14142895e-05,8.34465e-07
5.9604645e-08,0.023621202,0.37518084,0.97537404,0.0007429123,0.00024837255,0.0044662654,5.9604645e-08,0.9970165,6.2584877e-07
0.9992125,0.0,1.7881393e-07,0.0,0.0,0.00034496188,0.0006507933,4.172325e-07,5.6028366e-06,3.1888485e-06
0.0013249516,2.682209e-07,0.0018360615,8.225441e-06,6.854534e-07,0.9997312,0.0067175925,6.28829e-06,0.0025232434,7.0631504e-05
0.9959532,8.940697e-08,6.854534e-07,1.3113022e-06,8.940697e-08,0.0015540719,0.0032784045,1.1712313e-05,0.00012424588,0.0009742081
2.3841858e-07,3.427267e-06,0.00033065677,0.0003785193,4.7683716e-07,0.996458,0.017019987,1.1265278e-05,0.98968333,7.2568655e-05
6.720424e-05,1.7881393e-07,4.529953e-05,0.99998313,1.2308359e-05,0.0012020767,0.0017171502,5.9604645e-08,0.00012844801,3.0398369e-06
1.4901161e-07,0.9068465,0.016133487,0.99876875,0.0013124049,0.006231755,0.015031904,1.1920929e-07,0.3091972,6.300211e-05
3.9994717e-05,6.67572e-06,0.00033646822,0.00010472536,2.8282404e-05,0.99999917,0.025370061,1.9043684e-05,0.018990427,1.3798475e-05
0.0007596016,0.0,1.4811754e-05,1.1920929e-06,5.6028366e-06,8.445978e-05,0.0010683835,8.583069e-06,0.9995774,5.066395e-07
0.036278278,0.0,1.1920929e-07,6.2584877e-07,0.0,2.7358532e-05,0.00023004413,8.940697e-08,0.9439824,0.00016820431
0.00983265,0.0,1.3738871e-05,8.8870525e-05,0.0024984777,0.0025503337,0.002115041,0.00018852949,0.81418574,0.0013128221
0.00019773841,2.9802322e-05,0.083738655,5.841255e-06,1.013279e-06,7.426739e-05,0.0060707033,1.8298626e-05,0.99908566,4.2438507e-05
0.94627285,1.1920929e-07,1.0877848e-05,3.5762787e-07,6.854534e-07,0.000469774,0.0056198537,0.0002887845,0.0038749874,0.0032370985
0.81132704,0.0,2.9802322e-06,5.0365925e-06,0.0,0.15991035,0.0053271353,2.3841858e-06,0.0013032854,0.00010570884
0.05041048,6.458163e-05,2.0712614e-05,2.2530556e-05,1.7881393e-07,0.0019300878,0.027635306,0.00071263313,0.035300136,0.08740559
0.97982043,1.1920929e-07,6.0796738e-06,5.364418e-07,0.0,0.000243783,0.0004887879,4.5895576e-06,0.00036373734,0.02683565
0.0001142025,9.834766e-07,0.00222677,2.3245811e-06,7.1525574e-07,0.00034305453,0.0126205385,1.3202429e-05,0.99812084,0.000742048
9.983778e-06,0.99925166,0.00020000339,0.075350314,2.5480986e-05,0.0045921206,0.003206998,5.9604645e-08,0.8810113,0.0005809963
0.0,1.2814999e-06,0.9928193,0.99989474,0.9853134,0.00021868944,0.017326742,5.9604645e-08,0.00018161535,2.0861626e-07
1.3709068e-06,0.99853706,0.002113223,0.001101464,2.9802322e-07,0.029132277,0.0024656057,2.0861626e-07,0.04186696,0.0017044544
0.9872173,0.0,5.3942204e-06,6.2584877e-07,0.0,0.00070026517,0.00050625205,1.1026859e-06,0.0022066832,0.0024059415
0.000833869,0.0004030764,0.000523299,0.000164181,1.013279e-06,0.004613042,0.012319535,1.2516975e-06,0.9521942,0.06997052
0.12374568,1.4007092e-06,1.6719103e-05,2.4437904e-06,0.0,0.001137644,0.0026755035,2.9802322e-08,0.8562851,0.00022059679
9.217858e-05,7.122755e-06,7.4505806e-07,2.2947788e-06,1.4901161e-06,0.0046599805,0.99675286,1.1920929e-07,0.0019732416,0.00092351437
0.023832858,0.0,6.020069e-06,9.834766e-07,1.4901161e-07,0.00023695827,0.0023349524,1.7255545e-05,0.992423,2.476573e-05
0.00014546514,6.2584877e-07,0.027198762,3.33786e-06,1.5676022e-05,4.6491623e-05,0.00032168627,0.007995099,0.1523301,0.70766675
0.9956167,0.0,5.662441e-07,5.364418e-07,0.0,0.0008454323,0.0008033514,5.2452087e-06,0.00011467934,0.00022098422
0.07188246,0.0,6.893277e-05,1.4603138e-06,7.867813e-06,0.000880152,0.0020439029,8.940697e-08,0.0024452806,0.9066354
0.0014553368,4.172325e-07,0.85482156,4.5001507e-06,0.017177224,0.0009971261,0.0018925369,5.158782e-05,0.0010080636,0.010841787
0.0,2.5600195e-05,3.6358833e-06,0.9999962,1.2427568e-05,0.0011038184,0.8730191,2.9802322e-08,5.0604343e-05,1.1920929e-07
0.99038124,2.9802322e-08,1.9967556e-06,4.7683716e-07,2.0861626e-07,0.0007122159,0.0008570254,4.1127205e-06,5.0753355e-05,0.0010218918
0.9838419,2.9802322e-08,5.8174133e-05,2.503395e-06,0.0,0.00045785308,0.00041738153,0.0011317134,0.0002837777,0.0047113895
3.5762787e-07,9.074807e-05,0.0027864575,0.4702346,0.0008468628,0.99999905,0.028763622,4.953146e-05,0.020137757,1.1950731e-05
4.1216612e-05,5.364418e-07,0.00010791421,6.854534e-07,6.645918e-06,0.0004043877,0.0112944245,8.672476e-06,0.0001976192,0.99337065
4.827976e-06,0.9904696,0.0012246966,0.009118974,0.00013536215,0.9159317,0.0011052191,5.155802e-06,0.14261612,9.4771385e-05
0.97875684,0.0,2.1457672e-06,2.9802322e-08,0.0,0.00027632713,0.0011209548,0.013395339,2.5004148e-05,3.874302e-05
0.9951825,0.0,5.364418e-07,4.7683716e-07,5.9604645e-08,0.0009069443,0.00087603927,2.6226044e-06,5.8621168e-05,0.00025978684
0.6934757,0.0,2.0861626e-07,6.055832e-05,0.0,0.0013713539,0.001028657,5.066395e-07,0.36419117,0.00022375584
0.15469414,1.04010105e-05,0.04391548,1.2814999e-06,1.4901161e-07,0.0024484396,0.0023762286,0.016937107,0.027115852,0.0036576986
8.046627e-07,1.2814999e-06,9.536743e-07,7.5399876e-06,0.0,9.304285e-05,0.005885154,0.0,0.9999554,1.7881393e-06
0.99651194,0.0,4.172325e-07,1.1920929e-07,2.9802322e-08,0.00073730946,0.0010126233,7.122755e-06,5.057454e-05,0.00045004487
0.00017094612,0.0,8.6426735e-07,1.2814999e-06,0.0,3.567338e-05,0.0022999346,3.2782555e-07,0.99991167,5.662441e-07
0.015511423,0.0,1.424551e-05,5.9604645e-07,2.2649765e-06,0.0007585287,0.0018860698,1.3381243e-05,0.97789264,0.00010406971
0.00050726533,0.0,7.867813e-06,9.4771385e-06,5.066395e-07,0.0002706349,0.003609866,1.5199184e-06,0.9997772,8.46386e-06
2.8133392e-05,5.722046e-06,0.0001911521,5.0127506e-05,8.940697e-07,0.9999807,0.01714006,1.3947487e-05,0.018700033,8.85129e-06
0.002944231,0.00011178851,0.0006144941,1.4603138e-06,0.00012603402,0.0063479543,0.98636794,1.4007092e-06,0.0002450645,0.00042372942
3.963709e-06,0.99894917,0.0010972917,0.020161599,4.4703484e-07,0.009436399,0.0012931228,2.9802322e-08,0.28906167,0.0014438033
0.00078967214,0.9527641,0.0010467768,9.9778175e-05,5.9604645e-08,0.009584069,0.007403195,2.3841858e-07,0.006634146,0.028715521
3.516674e-06,0.38624698,0.064552784,0.00050240755,1.1920929e-07,0.0005955994,0.021205634,8.046627e-07,0.99857265,0.00013107061
