0,1,2,3,4,5,6,7,8,9
0.956815,2.9802322e-08,6.854534e-06,3.3974648e-06,2.413988e-06,0.0018621087,0.0024285018,6.854534e-07,0.009605169,0.0009799898
0.8922595,0.0,9.834766e-07,0.00028061867,5.9604645e-08,0.0027851164,0.001102984,0.063266784,4.377961e-05,0.0020074248
1.1205673e-05,2.0861626e-06,0.0032311976,0.0014098287,0.9604186,0.9994273,0.019966125,5.507469e-05,0.0020369887,2.5898218e-05
0.0,4.670024e-05,1.7881393e-06,0.9999904,6.2286854e-06,0.0010896325,0.89625126,5.9604645e-08,4.8071146e-05,2.4437904e-06
3.7699938e-05,0.0,1.4901161e-07,0.9999919,4.4703484e-07,0.00039458275,0.00028842688,0.0,7.1674585e-05,2.9802322e-08
0.981934,0.0,5.9604645e-08,0.0,0.0,7.200241e-05,0.00059211254,0.000608623,6.0498714e-06,5.710125e-05
0.0026687682,1.4603138e-06,1.591444e-05,0.00012919307,4.4703484e-07,0.0021097362,0.016646206,8.940697e-08,0.9825093,0.00072553754
0.0,0.0,1.4901161e-06,0.99999976,0.97123575,0.00020250678,0.0012542605,0.0,0.00017860532,0.0
1.1920929e-07,0.0,7.4505806e-07,0.14944482,0.0,4.9203634e-05,0.0015721321,3.516674e-06,0.9999523,5.9604645e-08
0.0002592802,8.574128e-05,8.34465e-07,2.026558e-06,6.2584877e-07,0.004865378,0.9982689,1.5795231e-06,0.009583503,0.0007144213
1.4007092e-06,2.9802322e-07,0.8675126,8.329749e-05,9.953976e-06,0.0006019771,0.015258968,8.583069e-06,0.9972621,5.6028366e-06
0.0014236569,0.0,4.2140484e-05,2.0861626e-07,1.1920929e-07,4.273653e-05,0.0020218194,1.9073486e-06,0.9992002,8.34465e-07
5.9604645e-07,0.15322119,0.00020828843,0.99360156,1.3709068e-06,0.0020241141,0.005027473,0.0,0.8813562,0.00018510222
0.00023284554,0.9509871,0.020904303,0.0055688918,8.374453e-06,0.004572481,0.0050079823,1.1026859e-06,0.024823755,0.021078587
0.056695312,0.0,2.9146671e-05,3.8444996e-06,8.940697e-08,0.00036081672,0.0017405748,0.00040319562,0.97211003,5.301833e-05
0.003448695,0.04074043,0.0045211315,4.2438507e-05,3.4570694e-06,0.0025665462,0.23076728,2.592802e-06,0.7832784,0.01298216
1.1920929e-07,0.0,1.5795231e-06,0.99999756,2.3305416e-05,0.00031986833,0.0058241785,0.0,0.21077129,0.0
0.97894645,1.4901161e-07,4.2945147e-05,2.1666288e-05,2.9802322e-08,0.0011316538,0.00063344836,2.2649765e-06,0.00056517124,0.0063055456
1.847744e-06,0.0023773015,0.064852625,0.0009946525,0.0059061944,0.015955836,0.823833,0.00087475777,0.088804334,0.0043798387
2.3007393e-05,7.2717667e-06,1.1920929e-06,0.001704365,4.172325e-06,0.00039190054,0.79583925,8.910894e-06,0.9904632,1.41859055e-05
0.9969591,0.0,3.5762787e-07,5.9604645e-08,0.0,0.00038781762,0.00057545304,1.6629696e-05,8.785725e-05,3.170967e-05
0.008785963,5.632639e-06,0.9293444,0.0016788244,6.2584877e-07,0.0017985702,0.001949966,2.348423e-05,0.0019332767,0.00025814772
0.9980626,0.0,0.0,2.0861626e-07,0.0,0.00022339821,0.00056385994,3.874302e-07,9.36687e-05,0.00013631582
0.0004567802,2.130866e-05,0.00044971704,0.057810277,1.2516975e-06,0.003958434,0.006347567,2.1398067e-05,0.99566925,0.00023844838
0.0013658702,0.0,1.8268824e-05,1.937151e-06,8.374453e-06,8.46684e-05,0.0044079423,8.6426735e-07,0.99864864,8.225441e-06
2.7418137e-06,4.8428774e-05,0.39557576,0.00068846345,0.0259085,0.14373004,0.02410233,0.0007787347,0.04298863,0.069276005
0.007088214,0.0008306205,4.2259693e-05,5.9604645e-07,2.0861626e-07,0.0045735836,0.73191833,0.0001887083,0.0003081262,0.0023519695
0.95739377,0.0,1.8775463e-06,0.0,0.0,0.000102609396,0.0005427599,0.024136096,3.2752752e-05,9.226799e-05
0.042229414,8.940697e-08,4.6491623e-06,2.5689602e-05,2.0861626e-07,0.00016111135,0.001034677,0.9905311,0.0046598315,3.567338e-05
8.34465e-07,0.99366975,0.00021740794,0.60398936,2.413988e-06,0.0025160313,0.019243836,0.0,0.98586845,0.00013959408
0.00030848384,4.4107437e-05,3.5762787e-07,2.0861626e-07,8.940697e-08,0.0037618577,0.99697155,1.1920929e-07,0.008599818,0.0005721748
9.119511e-06,2.8669834e-05,8.34465e-07,3.3676624e-06,2.0861626e-07,0.0029428303,0.99690974,2.682209e-07,0.2323088,0.00027298927
0.019252777,2.3245811e-06,4.23193e-06,3.5762787e-07,4.5001507e-06,0.0009947419,0.99035215,4.7683716e-07,0.00040873885,3.1918287e-05
1.1920929e-06,2.0861626e-07,1.3530254e-05,0.99997586,0.00027653575,0.00071659684,0.025815308,0.00010216236,0.00010830164,3.7252903e-06
0.85629386,0.0,8.404255e-06,5.364418e-07,1.6391277e-06,0.0011052489,0.0022310317,7.122755e-06,0.34909028,4.172325e-05
0.9983077,0.0,5.364418e-07,0.0,0.0,0.00032249093,0.00032258034,1.1920929e-07,8.314848e-06,3.170967e-05
0.94258296,0.0,1.4305115e-06,6.2584877e-07,5.9604645e-08,0.0011115968,0.0013457537,0.0,0.05183804,0.0013673902
0.99679244,0.0,5.364418e-07,2.682209e-07,0.0,0.00041812658,0.00063991547,2.592802e-06,5.7667494e-05,9.5278025e-05
0.9657456,0.0,4.976988e-06,6.2584877e-07,5.9604645e-08,0.0013507605,0.00070783496,5.0365925e-06,0.00014543533,0.047973603
5.939603e-05,0.0,1.937151e-06,2.1368265e-05,2.9802322e-08,9.816885e-05,0.004141897,5.9604645e-08,0.99993396,3.1292439e-06
3.2484531e-06,9.983778e-06,0.89782906,0.00012618303,1.1265278e-05,0.0015799999,0.0024689734,1.4215708e-05,0.99474496,1.3202429e-05
0.94490016,8.940697e-08,6.824732e-06,3.0696392e-06,1.4305115e-06,0.0017955303,0.00352332,3.5762787e-07,0.04567811,0.0003335774
1.4007092e-06,9.506941e-06,0.011683375,9.658933e-05,0.00016447902,0.9999886,0.01153034,0.00018420815,0.087533265,3.2514334e-05
9.4771385e-06,0.9992951,2.6583672e-05,0.00523147,1.847744e-06,0.0034282804,0.00047650933,0.0,0.9463637,0.00016519427
0.00010898709,1.1920929e-07,8.940697e-06,2.732873e-05,2.9802322e-08,0.00016364455,0.021364003,1.758337e-06,0.99987614,5.841255e-06
0.07130954,0.0,2.0861626e-07,1.1026859e-05,1.3411045e-06,0.00013506413,0.00013655424,0.97372246,0.0015913844,9.730458e-05
0.02664718,2.9802322e-08,5.5909157e-05,1.7881393e-06,4.172325e-06,0.00065752864,0.003406763,1.1622906e-06,0.9929874,2.0623207e-05
0.00041627884,1.0728836e-06,0.00022894144,0.025258154,6.3180923e-06,0.0011517107,0.0039726496,0.00014218688,0.98935854,0.0021035075
3.385544e-05,0.9987627,0.0010549724,0.033800274,0.00015759468,0.028186917,0.0013118088,5.9604645e-08,0.32204694,0.0004208088
0.99835426,0.0,5.9604645e-08,8.940697e-08,0.0,0.00048142672,0.0007765591,1.4901161e-07,5.2690506e-05,3.4570694e-06
0.00020191073,3.5762787e-07,0.0011649728,9.685755e-06,3.2693148e-05,0.4338186,0.027581006,0.006156385,0.0034621656,0.00032380223
5.710125e-05,0.998137,0.00023594499,0.0004863739,6.2584877e-07,0.0034424663,0.002025485,4.172325e-07,0.0414899,0.00059854984
4.261732e-06,7.337332e-05,0.00098297,7.247925e-05,9.953976e-06,0.9999932,0.019977689,1.4394522e-05,0.4603749,2.5302172e-05
0.6983123,8.940697e-08,3.8146973e-06,1.3500452e-05,0.0,0.0016727448,0.00093591213,0.0005874932,0.53298515,0.0002220869
0.9578308,5.6028366e-06,0.00035077333,1.847744e-06,5.543232e-06,0.0020867884,0.0014986098,1.2218952e-05,0.0016778111,0.014693171
3.993511e-06,0.99969995,7.3611736e-06,0.0022608936,2.7745962e-05,0.017696619,0.00056138635,0.0,0.06512183,0.00028288364
0.97333145,2.0861626e-07,1.66893e-06,7.1525574e-07,0.0,0.0012666583,0.0012437999,8.940697e-08,0.030448765,0.000919044
3.1590462e-06,0.98598576,0.017223358,0.0006134212,1.1920929e-07,0.007083088,0.009668469,1.937151e-06,0.0010578334,0.00069612265
0.97519976,0.0,1.32620335e-05,2.682209e-07,6.854534e-07,0.0012158155,0.0018422604,1.7464161e-05,0.006601393,0.00062555075
6.887317e-05,0.99516726,5.4597855e-05,0.00058606267,3.874302e-07,0.0068007708,0.004252553,0.0,0.08754501,0.009419203
0.9990795,0.0,1.4901161e-07,5.9604645e-08,0.0,0.00017538667,0.00082957745,5.662441e-07,9.387732e-06,6.1690807e-06
0.068456054,5.096197e-06,3.796816e-05,3.0696392e-06,3.5762787e-07,0.57917315,0.021446735,1.9967556e-06,0.3749249,0.00033846498
3.0875206e-05,3.8146973e-06,0.0007542074,0.033323437,0.8676634,0.98599607,0.019301474,0.00036141276,0.005326271,0.00023308396
2.9802322e-08,9.179115e-06,5.9604645e-08,3.59118e-05,3.8415194e-05,4.5239925e-05,0.01704079,0.0,0.9802141,0.00012764335
0.053876817,2.104044e-05,0.00013163686,1.296401e-05,1.4305115e-06,0.0016399622,0.03023249,1.7881393e-07,0.8676051,0.007572353
0.99791515,0.0,1.3411045e-06,0.0,0.0,0.00014013052,0.00044852495,1.2546778e-05,0.00016734004,2.3812056e-05
0.9957955,0.0,2.682209e-07,5.9604645e-08,0.0,0.0006287396,0.00047147274,5.841255e-06,0.00031873584,0.0004619658
4.0233135e-06,1.1026859e-06,0.012096614,4.2319298e-05,0.0051952004,4.3600798e-05,0.00619787,7.748604e-07,0.99951077,0.00038704276
0.00037109852,1.937151e-06,0.0025248826,0.00013405085,1.218915e-05,0.00096052885,0.0043967366,0.082610846,0.83647215,0.004996687
0.17418468,0.0,5.9604645e-08,2.9802322e-08,0.0,8.821487e-06,0.00038453937,0.9738688,8.404255e-06,3.2484531e-06
0.08939606,0.0,2.0861626e-07,8.314848e-06,0.0,0.0005199611,0.0014882088,2.9802322e-08,0.9530224,1.0341406e-05
0.97602344,0.0,1.7881393e-07,9.834766e-07,2.0861626e-07,0.0012667477,0.0016422272,3.8146973e-06,0.0013277829,0.00084504485
5.3942204e-06,1.1920929e-07,2.95043e-05,0.9999854,3.5494566e-05,0.0008646846,0.0041776597,1.2516975e-06,0.00057044625,1.7285347e-06
5.3167343e-05,3.2782555e-07,6.6161156e-06,0.9999341,4.7683716e-07,0.00041034818,0.0021563768,2.1755695e-06,0.000431031,4.7385693e-06
7.301569e-06,0.0,4.1127205e-06,0.9999968,1.2516975e-06,0.000113755465,0.0009898543,0.0,4.8965216e-05,1.4901161e-07
0.00015434623,5.9604645e-08,9.000301e-06,6.854534e-06,1.4901161e-06,0.00057417154,0.020335078,3.0696392e-06,0.9972208,0.00023970008
0.63498676,0.0,9.23872e-07,2.0861626e-06,2.0861626e-07,0.0006752312,0.0010209382,0.36352962,8.490682e-05,0.00021830201
0.95717406,0.0,2.399087e-05,5.9604645e-08,0.0,0.0011447668,0.0016108453,0.0031109154,0.00065624714,0.008420646
0.9115267,0.0,4.5001507e-06,3.6358833e-06,0.0,0.001098454,0.00068306923,0.0009177327,0.08083546,0.00011467934
0.27989078,7.748604e-07,3.695488e-06,0.19982743,4.798174e-06,0.006415814,0.0030342042,1.2427568e-05,0.010814667,0.00019392371
0.97255987,0.0,2.4437904e-06,1.7881393e-07,8.940697e-08,0.0023846626,0.0021430552,4.7683716e-05,0.00025084615,0.0028140545
0.009224117,2.9802322e-08,1.1891127e-05,1.3530254e-05,0.9768657,0.0030622184,0.0040653944,2.413988e-06,0.0035393536,0.00010842085
0.99521554,0.0,9.208918e-06,6.2584877e-07,0.0,0.0011504889,0.0010207891,1.4722347e-05,0.00014308095,2.2768974e-05
0.9973738,0.0,1.1920929e-07,8.940697e-08,0.0,0.001614213,0.00079780817,9.23872e-07,9.432435e-05,2.515316e-05
1.2367964e-05,1.1920929e-07,0.00033706427,7.587671e-05,0.000662446,0.000115185976,0.013713449,4.917383e-06,0.9991373,4.23193e-06
0.986168,0.0,3.606081e-06,0.0,2.3841858e-07,0.0007571876,0.0032643378,0.00062069297,0.00012516975,0.00029164553
4.7683716e-07,1.1920929e-07,5.0395727e-05,0.0002347529,1.1354685e-05,0.8179287,0.07107696,3.963709e-06,0.99191713,2.8908253e-06
1.7881393e-07,6.854534e-07,0.0001309812,0.000264436,0.00030568242,0.0002322793,0.00086671114,2.413988e-06,0.0013657212,0.98856103
2.9802322e-07,1.1920929e-06,2.115965e-06,0.9999991,1.66893e-06,0.00032013655,0.052463114,0.0,0.0041654706,8.940697e-08
1.6987324e-06,0.9995835,0.00015565753,0.1703035,0.029381752,0.005583197,0.00051259995,0.0,0.36306596,4.0769577e-05
0.01264289,0.0,5.1617622e-05,1.8775463e-06,0.0002206862,0.0023871958,0.026802331,2.0325184e-05,0.97465646,8.4757805e-05
0.9906182,0.0,5.662441e-07,2.3841858e-07,0.0,0.00091186166,0.0005996227,1.1920929e-07,0.017568171,2.5391579e-05
4.7683716e-07,0.0,0.0,4.172325e-07,2.0861626e-07,2.9802322e-08,8.821487e-06,0.0,4.6491623e-06,0.99996626
0.34776932,0.0,1.6391277e-06,1.4781952e-05,2.9802322e-08,0.00024273992,0.00050637126,0.8174245,0.0013234615,0.0061551034
8.940697e-08,5.3167343e-05,0.6583817,0.00089132786,0.0004905164,0.99999976,0.0031252503,0.00022107363,0.1538817,2.4050474e-05
0.98219216,0.0,8.940697e-08,5.662441e-07,2.9802322e-08,0.00053974986,0.0005656481,1.7881393e-07,0.009184718,1.8000603e-05
1.5437603e-05,0.00013303757,0.96523106,3.877282e-05,0.00025001168,0.008246869,0.11841297,9.924173e-06,0.96994936,0.00019198656
0.94807696,2.9802322e-08,6.943941e-06,2.2649765e-06,1.1920929e-07,0.00069731474,0.0033059716,0.0009823143,0.00020161271,0.003908694
0.0,0.0033479035,5.2452087e-06,0.9999685,7.95722e-06,0.010554045,0.8065556,4.172325e-07,0.030029327,5.066395e-06
1.6272068e-05,2.0861626e-07,0.00018912554,1.847744e-06,1.9669533e-06,1.8656254e-05,0.00023028255,0.0013417304,0.002416104,0.98384964
0.99148726,0.0,7.0631504e-06,5.364418e-07,2.682209e-07,0.0010210872,0.0009915233,4.529953e-05,0.0019358099,0.00021725893
0.93798345,0.0,3.516674e-06,3.1590462e-06,8.6426735e-07,0.0012967885,0.003315419,1.937151e-06,0.0123384595,0.0004415512
1.3381243e-05,8.940697e-08,0.0002657771,0.000105798244,0.0012748241,0.00012037158,0.020223737,4.529953e-06,0.9998604,1.4662743e-05
0.06398913,0.0,4.053116e-06,2.503395e-06,6.3180923e-06,0.00023600459,0.0007549226,0.0,0.076974094,0.64132655
0.9770775,0.0,2.6226044e-06,2.2947788e-06,8.34465e-07,0.0021343827,0.001680851,2.1606684e-05,0.00024592876,1.2069941e-05
1.1920929e-07,0.5924943,0.0007635355,0.9920435,2.3841858e-07,0.0018824041,0.040666133,0.0,0.09871781,0.00047785044
4.5329332e-05,4.708767e-06,0.00091072917,0.00023072958,2.4437904e-06,0.9999193,0.011930376,0.0034339428,0.0030055642,0.00012233853
6.1392784e-06,1.8268824e-05,0.37439162,0.99881244,0.0060029924,0.0029926002,0.010627389,4.708767e-06,0.15080693,0.0003681481
0.96523654,0.0,9.834766e-07,1.4007092e-06,3.5762787e-07,0.0032692552,0.005103618,1.4901161e-07,0.013009369,0.0012790263
2.1517277e-05,0.0,9.834766e-07,0.99999,1.013279e-06,0.00031971931,0.0018079579,2.0861626e-07,0.0002657175,1.013279e-06
0.98529756,0.0,1.1920929e-07,1.5497208e-06,0.0,0.000418216,0.0007495582,0.00014671683,0.00047409534,1.4901161e-05
2.413988e-06,1.7881393e-07,0.001150012,0.9902021,0.9971328,0.001309067,0.010663718,1.1920929e-07,0.015964419,1.2516975e-06
0.0,0.99441534,1.49309635e-05,0.3534591,2.9802322e-08,0.00022679567,0.00088754296,0.0,0.9987865,2.8312206e-06
0.97384673,0.0,2.8014183e-06,8.6426735e-07,1.1324883e-06,0.0034591854,0.007595569,6.2584877e-07,0.00023818016,0.0002913177
2.9802322e-08,4.476309e-05,0.98518753,0.0005285442,2.1964312e-05,0.00053945184,0.0023645163,9.834766e-07,0.9939246,9.417534e-06
0.9711646,2.9802322e-07,0.0009688735,1.4901161e-07,5.364418e-07,0.0017127395,0.0034254491,3.3676624e-06,0.0034635067,0.002819717
1.2516975e-06,5.662441e-07,2.798438e-05,4.61936e-06,4.440546e-06,0.98425823,0.015881002,3.8146973e-06,0.90205026,0.0005262494
6.854534e-06,0.00063464046,0.031091511,0.0031242669,0.00036370754,0.99953836,0.02271837,0.00050374866,0.09527454,5.7071447e-05
3.4570694e-06,1.0609627e-05,0.00027894974,0.999954,5.5640936e-05,0.0022835135,0.1039328,2.771616e-06,0.0029290915,2.2679567e-05
1.3947487e-05,0.0,3.8444996e-06,1.3411045e-06,9.23872e-07,3.376603e-05,0.00058990717,0.99811006,0.0007517636,0.00047060847
0.98884046,0.0,6.0796738e-06,1.7881393e-07,7.1525574e-07,0.0011220276,0.0018369853,1.9073486e-06,0.0016406775,0.00044623017
0.9957789,0.0,2.682209e-07,2.3841858e-07,0.0,0.00075131655,0.0005581379,6.7949295e-06,0.00035217404,0.00013133883
0.9986836,0.0,6.2584877e-07,2.9802322e-08,0.0,0.00032126904,0.000821352,1.7881393e-07,5.558133e-05,5.8859587e-05
0.14299828,0.0,4.172325e-07,0.00012251735,2.9802322e-08,0.0029661357,0.000949651,2.6643276e-05,0.9001291,0.00070911646
0.33470383,9.122491e-05,6.943941e-06,5.272031e-05,3.2782555e-07,0.0010201335,0.0017280281,2.9802322e-08,0.1694493,0.0064105093
1.1920929e-07,3.8444996e-06,1.937151e-06,0.0,0.0,0.0,1.4007092e-06,0.0,2.9802322e-07,0.99407965
0.00033935905,6.9737434e-06,0.028125852,0.00017797947,2.503395e-06,0.0011124313,0.0027636886,1.6391277e-06,0.26222792,0.9329449
9.924173e-06,0.95461404,0.06422359,0.00825873,0.00014659762,0.0032865703,0.006283045,8.0138445e-05,0.0064977407,0.07907382
0.003391862,0.0,3.08156e-05,5.7816505e-06,1.770258e-05,0.0009627938,0.009134054,1.5199184e-06,0.9923519,0.00015729666
0.9548089,0.0,4.5120716e-05,2.9802322e-07,4.7683716e-07,0.001959622,0.0011966825,2.7120113e-06,0.010922015,0.00585106
6.4373016e-06,0.999334,0.0004414916,0.0040989816,3.066659e-05,0.029332578,0.0029067695,5.662441e-07,0.144286,0.0003041923
0.00021451712,0.0,1.8119812e-05,6.2584877e-07,2.9802322e-08,7.110834e-05,0.004417926,5.9604645e-08,0.9996797,5.930662e-06
0.0038385391,4.1157007e-05,1.001358e-05,1.2874603e-05,3.0100346e-06,0.006990999,0.8889489,3.159046e-05,0.008944541,0.0017578602
0.9597297,0.0,5.9604645e-08,5.9604645e-08,0.0,0.00027886033,0.00030079484,0.0,0.09251797,8.4519386e-05
1.4901161e-07,0.9990853,7.0631504e-05,0.84891427,2.6255846e-05,0.002082914,0.00066778064,0.0,0.013843775,0.00012531877
1.4901161e-07,8.940697e-07,0.000331223,0.99988365,0.020857483,0.000333488,0.005410254,7.688999e-06,0.0009980202,4.965067e-05
0.08504164,2.682209e-07,2.2858381e-05,0.49635696,0.0017239153,0.0034555793,0.00449121,6.854534e-07,0.014227271,0.00042542815
0.82385343,3.5762787e-06,2.2679567e-05,2.9802322e-07,0.0,0.00040215254,0.001801908,1.4901161e-07,0.36895174,0.0030064285
0.02744463,1.3411045e-06,0.029521048,8.821487e-06,1.3709068e-06,0.00092318654,0.009364247,1.2636185e-05,0.93093777,7.43866e-05
9.387732e-06,8.940697e-08,7.122755e-06,5.2541494e-05,8.046627e-07,0.00024834275,0.004087299,6.854534e-07,0.99995,9.536743e-07
0.14648882,1.4901161e-07,1.9013882e-05,3.874302e-06,0.0,0.00070020556,0.0033988953,9.685755e-06,0.9145894,0.00024566054
0.89621526,0.0,1.4901161e-07,1.4007092e-06,0.0,0.00025340915,0.0006364286,4.5895576e-06,0.15624747,7.390976e-06
0.9769978,3.5762787e-07,9.208918e-06,1.04904175e-05,4.172325e-07,0.0011640787,0.0036780834,1.8179417e-06,0.003145367,0.0021375716
0.9992546,0.0,1.7881393e-07,0.0,0.0,0.0002786517,0.0006633997,1.1622906e-06,1.6570091e-05,9.536743e-06
2.0861626e-07,5.9604645e-08,4.7683716e-07,0.9999966,6.2584877e-07,0.0019216835,0.018896073,4.172325e-07,0.00019437075,2.9802322e-08
0.18070424,5.9604645e-07,3.1590462e-06,1.257658e-05,0.0,0.0009561181,0.0036500394,5.9604645e-08,0.9174617,0.00027543306
0.9621465,0.0,2.1457672e-06,1.2516975e-06,0.0,0.00028064847,0.0010883212,0.00011432171,0.012785882,8.377433e-05
0.9978504,0.0,7.1525574e-07,0.0,0.0,0.00040894747,0.0012453794,1.0728836e-06,2.0563602e-05,0.0002206862
0.012131512,1.7881393e-07,0.0001693964,2.2947788e-06,1.7285347e-06,0.0012505054,0.027380913,1.013279e-06,0.95668125,0.0009997487
0.99039245,0.0,1.3142824e-05,4.7385693e-06,5.9604645e-08,0.004304588,0.0016441643,1.296401e-05,0.0024379194,9.781122e-05
0.51857007,0.0,7.113814e-05,5.6624413e-06,8.046627e-06,0.0020709932,0.0069303513,1.1622906e-06,0.4335755,0.0011394322
0.00094765425,0.8557721,0.0031203032,0.00014573336,8.34465e-07,0.0051364005,0.013255894,2.3245811e-06,0.006393999,0.010935873
0.009808242,1.1473894e-05,1.4901161e-07,4.452467e-05,8.940697e-08,0.0040923655,0.99106574,0.00010165572,2.3186207e-05,0.00033986568
0.008028597,0.00012281537,0.0011002421,0.00056791306,0.00011011958,0.97845244,0.08178419,0.00021755695,0.42387885,0.0042791367
6.020069e-06,2.9802322e-08,0.00025233626,0.0007800758,4.172325e-07,0.0016120076,0.0178473,0.0,0.9991194,1.7613173e-05
0.8053675,1.7285347e-06,0.00039049983,4.4703484e-07,2.9802322e-08,0.00018027425,0.00064721704,1.2218952e-06,6.517768e-05,0.23035854
2.3543835e-06,2.9802322e-08,7.9512596e-05,0.0012809336,0.77543837,0.00042274594,0.020535052,1.1920929e-07,0.9894459,1.835823e-05
2.0354986e-05,0.91762793,0.009383261,0.018220901,0.00023669004,0.02403438,0.13891938,1.1026859e-06,0.16932392,0.0012451708
3.1590462e-06,5.9604645e-08,2.1785498e-05,0.9999722,3.72231e-05,0.00053846836,0.0026886165,1.4901161e-07,0.0009421408,7.599592e-06
0.99745363,0.0,1.1920929e-07,0.0,0.0,0.00033032894,0.0008627176,2.1606684e-05,4.7385693e-06,2.3037195e-05
0.2637018,1.1920929e-07,0.00019189715,3.5464764e-05,2.3841858e-06,0.0010155141,0.0010812581,0.6438856,4.220009e-05,0.006270379
0.007724136,2.682209e-07,3.1471252e-05,5.2839518e-05,0.0,0.99942005,0.00079607964,1.2516975e-06,0.0080139935,5.4836273e-06
8.940697e-08,2.9802322e-08,2.2053719e-06,1.1622906e-06,0.0,2.682209e-07,3.71933e-05,0.0,1.1920929e-06,0.99998903
2.0861626e-07,0.9827577,0.0012152791,0.0043972135,0.0,0.00029534101,0.0014342666,0.0,0.9997332,3.5762787e-07
0.0,2.3812056e-05,0.00045779347,0.9999852,0.002739966,0.0032000244,0.1917372,6.6161156e-06,0.0040225983,1.937151e-06
0.00067153573,1.1920929e-07,0.00011998415,1.9043684e-05,3.1590462e-06,0.00023546815,0.014087141,5.3733587e-05,0.99700284,5.3942204e-05
1.4901161e-07,1.5795231e-06,5.9604645e-08,2.771616e-05,4.4703484e-07,7.459521e-05,0.6111967,6.556511e-07,0.99928916,8.934736e-05
0.97613347,2.9802322e-08,3.2007694e-05,2.9802322e-07,2.115965e-06,0.0009545982,0.0015976429,2.2649765e-06,0.0012757778,0.0023036003
0.8157368,0.0,3.427267e-06,6.854534e-07,0.0,0.0005185902,0.0016949177,8.6426735e-05,0.40629497,1.4334917e-05
0.0001116693,0.0,2.592802e-06,5.942583e-05,2.8252602e-05,0.00018137693,0.012484789,3.5762787e-07,0.99934405,8.761883e-06
0.00024223328,0.023143739,0.00036033988,0.010075092,0.00045487285,0.08990052,0.71608615,1.1384487e-05,0.006689012,0.017817587
0.9950466,0.0,2.0563602e-06,9.23872e-07,8.940697e-08,0.0023604333,0.0021048784,2.682209e-07,0.00040760636,0.00014966726
0.9960629,0.0,1.1920929e-07,5.9604645e-08,8.940697e-08,0.0011173785,0.0032776892,1.1920929e-06,0.00018641353,8.651614e-05
0.000166744,2.682209e-07,2.5182962e-05,7.453561e-05,6.4969063e-06,0.00032359362,0.003470391,5.632639e-06,0.0014315844,0.9948404
0.95726633,2.9802322e-07,4.529953e-06,6.2584877e-07,0.0,0.009495884,0.046795994,2.6494265e-05,0.00048297644,0.00029248
0.00013160706,0.9755609,0.035747647,0.0006688833,2.9802322e-07,0.00848645,0.036400467,9.834766e-07,0.019421548,0.0045182705
0.0,8.940697e-08,8.6426735e-07,0.999998,0.3936044,0.00015953183,0.001160711,2.9802322e-08,0.0015828311,8.940697e-08
6.5267086e-06,2.682209e-07,1.7881393e-07,2.115965e-06,4.7385693e-06,0.0012153685,0.99961114,0.0,6.28531e-05,8.5532665e-06
0.9908185,0.0,2.9802322e-07,5.662441e-07,0.0,0.00031495094,0.001203984,0.0003363788,0.00012278557,3.7521124e-05
2.9802322e-07,1.4901161e-07,0.9929583,2.682209e-06,1.6897917e-05,0.00011190772,0.0066694617,4.4375658e-05,0.99253035,7.748604e-07
1.7881393e-07,0.0003106296,0.00048410892,0.0037293732,0.000109910965,0.9999982,0.016541421,1.680851e-05,0.029054672,9.095669e-05
0.9920411,1.1920929e-07,1.4603138e-06,1.2516975e-06,8.940697e-08,0.0007677078,0.00094664097,2.3841858e-07,0.0021243691,0.00093731284
6.425381e-05,0.00015607476,0.0047291517,0.00027143955,1.3381243e-05,0.999327,0.07393089,0.0051338077,0.0038820505,0.0016032457
7.8082085e-05,0.0,1.6957521e-05,1.3768673e-05,0.0,6.1005354e-05,0.0018393993,0.00026595592,0.9999261,1.5199184e-06
0.0,1.8328428e-05,0.00026986003,0.0013027489,2.3812056e-05,0.121239245,0.82256186,3.1590462e-06,0.5251628,0.0013557673
1.40964985e-05,0.97793853,0.0031107962,0.7796691,2.9474497e-05,0.009041041,0.011369199,8.940697e-08,0.536353,0.004502833
3.4570694e-06,2.7418137e-06,0.00023767352,8.070469e-05,9.387732e-06,0.9999996,0.0050796866,1.129508e-05,0.08238968,1.5497208e-06
0.11449984,8.484721e-05,0.0012510121,4.1127205e-06,1.4603138e-06,0.00029870868,0.0018243492,1.1920929e-07,0.0015812516,0.7083639
0.7905529,2.9802322e-08,3.5762787e-07,3.784895e-06,2.9802322e-08,0.0008505881,0.0031455457,0.0,0.57611674,6.997585e-05
0.8187983,2.9802322e-08,2.4735928e-06,1.5199184e-06,8.940697e-08,0.0006106794,0.0009819567,0.00017294288,0.63534224,2.2232533e-05
8.940697e-08,2.527237e-05,0.0023823977,0.00074729323,0.00012794137,0.99757594,0.008887053,3.695488e-06,0.07563278,0.0009896755
5.364418e-07,3.120303e-05,0.93074787,6.574392e-05,2.9802322e-08,8.407235e-05,0.0019658506,3.516674e-06,0.99960613,1.4901161e-06
0.042133868,0.00014305115,0.0029873848,0.00022026896,0.014843315,0.0017179847,0.011561424,7.4505806e-07,0.44529995,0.026160419
4.7177076e-05,1.5825033e-05,0.0026816726,6.4730644e-05,2.82228e-05,0.9395858,0.011655569,1.6987324e-06,0.94929266,0.001099199
0.8615965,0.0,4.917383e-06,1.1116266e-05,6.2584877e-07,0.0016972423,0.0019328594,0.0004990995,0.018773943,0.0025615096
0.83814204,2.9802322e-08,5.942583e-05,2.9802322e-06,5.364418e-07,0.0015000701,0.0013626218,1.7881393e-06,0.072541684,0.015735686
0.00021004677,2.115965e-06,0.00034829974,3.156066e-05,1.2844801e-05,0.8556634,0.054402083,0.0010282695,0.0047644675,0.025834888
4.7683716e-07,1.8775463e-06,0.99202454,0.000166893,4.1127205e-06,0.0005272329,0.032647878,2.0861626e-06,0.99745214,7.748604e-07
1.1324883e-06,3.0428171e-05,0.41365033,3.8206577e-05,8.5532665e-06,0.6234642,0.07698047,0.0003387928,0.9674729,7.861853e-05
2.3841858e-07,0.0006687939,2.0742416e-05,0.9876428,0.0056707263,0.00053986907,0.8923433,3.5762787e-07,0.26195264,0.0006085634
0.60938674,8.34465e-07,3.245473e-05,0.0019948483,0.045296222,0.0145787,0.012158632,4.708767e-06,0.0038641095,0.002860874
0.0048452914,2.0861626e-07,0.97862554,7.748604e-07,0.00010216236,0.0015435219,0.01023528,9.265542e-05,7.939339e-05,0.00019416213
0.052493125,0.0,3.0398369e-06,2.3245811e-06,5.9604645e-08,0.00017163157,0.0016805232,0.0,0.98218906,5.5342913e-05
2.2947788e-06,0.017925411,0.09596425,0.9996793,0.013933212,0.0021972656,0.0040564537,1.4901161e-07,0.004773468,5.6922436e-06
0.99869657,0.0,2.3841858e-07,0.0,0.0,0.00024679303,0.0011546612,5.9604645e-08,2.0176172e-05,2.5629997e-06
0.0051587224,1.1920929e-07,1.9669533e-06,2.592802e-06,7.748604e-07,0.0096227825,0.9288043,6.854534e-07,0.0012832284,0.00047165155
8.651614e-05,0.0,2.771616e-06,0.00018748641,0.0006034374,6.15716e-05,0.0020933151,8.940697e-08,0.9997057,4.0233135e-06
1.54078e-05,0.0,3.2782555e-06,0.99998605,5.9604645e-08,0.00021532178,0.0011951923,5.9604645e-08,1.3917685e-05,4.7683716e-07
0.9909481,0.0,6.854534e-07,3.874302e-07,3.5762787e-07,0.0016869307,0.001855135,1.1354685e-05,0.00018045306,3.2365322e-05
0.59839857,3.427267e-06,0.00010097027,0.06503022,2.014637e-05,0.0076672435,0.001410842,7.876754e-05,0.0018060803,0.071329474
0.0017841756,0.0,1.8775463e-06,5.9604645e-07,0.0019195974,6.0796738e-05,0.0019223094,8.940697e-08,0.9955739,5.662441e-07
0.000113517046,4.142523e-06,0.00073733926,2.9206276e-06,5.2452087e-06,0.9999963,0.010551721,2.3245811e-05,0.04794818,9.602308e-05
0.90682435,4.61936e-06,6.7949295e-06,0.0003284812,1.8179417e-06,0.0038804412,0.014754295,2.95043e-06,0.000107228756,0.00073358417
2.503395e-06,0.0,0.00019076467,0.9998845,5.4836273e-06,0.000151366,0.0017518401,1.7881393e-07,2.142787e-05,5.662441e-07
0.9738724,5.930662e-06,0.00013878942,5.9604645e-07,2.9802322e-08,0.0006239712,0.0011752248,4.172325e-06,0.00056657195,0.041171283
5.6773424e-05,0.0,6.2584877e-07,6.2584877e-07,2.9802322e-08,0.00022006035,0.0026432574,0.9998996,3.167987e-05,0.00028207898
0.00050610304,1.3768673e-05,5.4061413e-05,5.066395e-06,5.066395e-07,0.008923322,0.93139243,4.61936e-06,0.18709001,0.0009455681
0.00015163422,0.0,1.3887882e-05,1.013279e-06,2.9802322e-08,1.9222498e-05,0.0020789802,8.940697e-08,0.9998996,9.23872e-07
0.99519396,0.0,5.364418e-07,0.0,2.9802322e-08,0.00078094006,0.0010746717,4.172325e-07,6.902218e-05,4.9561262e-05
0.010928094,2.9802322e-07,4.7802925e-05,3.927946e-05,2.4735928e-06,0.0017313659,0.005392313,9.834766e-07,0.9520821,0.02593422
0.9457756,0.0,5.155802e-06,0.0,0.0,0.0956144,0.0005226433,8.34465e-07,7.125735e-05,0.00011077523
8.285046e-06,0.0,1.7881393e-07,0.9999879,3.516674e-06,0.00038054585,0.00043353438,0.0,0.00024476647,5.662441e-07
0.28542262,1.0728836e-06,0.0017547011,3.993511e-06,1.0102987e-05,0.0007457137,0.004259199,2.1755695e-06,0.26728076,0.072692335
2.4318695e-05,0.28937012,0.11769396,0.00038149953,4.6640635e-05,0.033504725,0.19060037,0.00012123585,0.08413881,0.023303479
0.9985289,0.0,1.1920929e-07,5.9604645e-08,0.0,0.00035387278,0.0009699464,4.7683716e-07,0.00016987324,1.0728836e-05
0.96261305,0.0,1.4603138e-06,5.0365925e-06,1.5497208e-06,0.0008352995,0.0009404123,0.00028643012,0.00153476,0.00022697449
1.31726265e-05,3.1918287e-05,0.00015306473,0.99996907,0.00020343065,0.012577444,0.06027046,8.940697e-07,0.00025114417,4.5895576e-06
0.99565935,0.0,8.940697e-08,2.0861626e-07,0.0,0.0004594326,0.00075623393,2.9802322e-08,0.0007253289,0.00016880035
8.6426735e-07,4.3213367e-06,0.000533849,9.2834234e-05,0.00013372302,0.999676,0.0064141154,0.00074869394,0.04262829,0.0025366843
1.3411045e-06,0.99871707,6.297231e-05,0.0007785857,4.172325e-07,0.00046804547,0.00014668703,0.0,0.99701494,3.4868717e-06
0.99505883,0.0,8.6426735e-07,4.4703484e-07,0.0,0.0014846921,0.0012831688,1.1920929e-07,0.0011692345,0.000110358
0.99374735,0.0,4.172325e-07,1.0281801e-05,0.0,0.0024709105,0.0010950267,4.5895576e-06,0.0004749894,8.073449e-05
0.012399226,7.748604e-07,3.993511e-06,2.8312206e-06,7.4505806e-07,0.0037617385,0.89626384,3.2782555e-07,0.0001129508,0.00016266108
0.013805211,0.0,1.66893e-06,7.748604e-07,0.0,5.7518482e-05,0.0010068417,0.99810237,1.5854836e-05,5.6415796e-05
0.000121444464,4.759431e-05,4.184246e-05,5.3852797e-05,1.6063452e-05,0.9930352,0.073836684,1.809001e-05,0.03438154,0.0025007129
5.453825e-06,0.96598357,0.00073206425,0.0012778342,6.3180923e-06,0.8553395,0.009771228,2.0861626e-07,0.54308814,0.00018310547
0.996233,0.0,1.4901161e-06,5.9604645e-08,0.0,0.0008431971,0.0012639463,5.9604645e-08,0.0001629293,0.0013388991
3.6358833e-06,0.0,4.082918e-06,0.002919674,8.34465e-07,9.3758106e-05,0.0031192899,6.854534e-07,0.9999782,8.940697e-08
0.99603057,0.0,1.1920929e-07,2.9802322e-08,0.0,0.0003989339,0.0010218024,4.5895576e-06,0.00042018294,3.8176775e-05
5.9604645e-08,0.0,2.0563602e-06,0.99999976,0.00231117,0.00030472875,0.0015729666,5.9604645e-08,6.893277e-05,0.0
0.0014749765,8.1181526e-05,2.488494e-05,0.00017261505,5.9604645e-08,0.99612737,0.10277027,9.23872e-07,0.010910749,0.00015550852
0.9757681,0.0,9.536743e-07,0.0,0.0,0.000118643045,0.00074729323,0.0018814802,5.5462122e-05,4.2557716e-05
5.543232e-06,0.0002182424,5.581975e-05,1.859665e-05,5.5134296e-06,0.00071439147,0.9219043,3.4570694e-06,0.9676267,0.003452003
0.7401501,2.9802322e-08,2.8818846e-05,3.7550926e-06,1.3709068e-06,0.0017825067,0.0012509227,3.695488e-06,0.017007828,0.05483541
0.9104712,0.0,2.9802322e-08,0.0,0.0,1.2218952e-06,0.00031161308,2.9802322e-07,0.0010634065,0.004976362
0.9902336,0.0,5.364418e-07,2.9802322e-08,8.940697e-08,0.00041401386,0.0014743209,0.00014165044,0.00019598007,1.2874603e-05
0.05216992,0.0,1.2516975e-06,3.2484531e-06,5.9604645e-08,0.0004608631,0.0035254061,6.2584877e-07,0.98888296,1.9431114e-05
0.027978778,8.940697e-08,6.66976e-05,7.0035458e-06,1.4901161e-07,0.0013206601,0.0036298335,4.1127205e-06,0.9825817,0.00047686696
0.0008765459,2.3841858e-07,0.001000762,0.000100284815,7.838011e-05,0.0002604127,0.0031334162,6.28829e-06,0.63204235,0.38503712
0.20656955,0.0,2.6762486e-05,2.8312206e-06,1.1920929e-07,0.0030267239,0.0047900975,5.841255e-06,0.7125918,0.0006094575
8.34465e-07,0.0,8.940697e-06,0.99999857,6.1690807e-06,0.00036495924,0.0040100217,8.940697e-07,6.341934e-05,8.940697e-08
1.5348196e-05,1.2516975e-06,0.00024834275,2.6226044e-05,1.5199184e-06,0.0028399825,0.010994196,1.4156103e-05,0.99632466,0.0009870231
2.0861626e-07,4.4107437e-06,0.0026960075,0.99999356,9.602308e-05,0.00050860643,0.003938079,0.0,0.029006809,2.9802322e-07
1.6093254e-06,2.9802322e-08,2.9802322e-07,0.99999875,3.1888485e-06,0.00045078993,0.0012928545,4.7683716e-07,1.50203705e-05,1.1920929e-07
0.99591607,0.0,4.172325e-07,0.0,0.0,0.0002348721,0.0004298687,4.9978495e-05,0.00020867586,2.69413e-05
0.019545853,0.0,7.176399e-05,1.8626451e-05,0.040661246,0.006912768,0.0018565953,7.599592e-06,0.893106,8.884072e-05
0.0,6.246567e-05,2.5868416e-05,0.9961117,0.99335384,0.0019570887,0.94883174,1.7881393e-07,0.014442235,2.0563602e-06
0.9957524,0.0,6.2584877e-07,3.5762787e-07,0.0,0.0006773174,0.0013451576,3.427267e-06,1.2874603e-05,8.314848e-06
0.00037404895,2.3245811e-06,4.1872263e-05,2.1904707e-05,8.34465e-07,0.00015085936,0.0028900206,2.9802322e-07,0.9995144,8.791685e-05
0.00022920966,1.4901161e-07,0.00075402856,0.0004274845,1.6480684e-05,0.00029248,0.0038031638,7.688999e-06,0.9991661,2.2292137e-05
4.1127205e-06,0.0,6.556511e-06,0.00017923117,1.4007092e-06,0.0005505979,0.0071389377,1.8179417e-06,0.9999392,3.993511e-06
0.00019001961,0.98841846,0.0055295527,0.0015407801,4.9471855e-06,0.008315831,0.011709005,3.5762787e-07,0.8631278,0.002044648
5.8561563e-05,1.7136335e-05,5.6028366e-06,0.9979464,0.036710203,0.039111614,0.0023274124,1.5884638e-05,0.00090426207,8.556247e-05
3.2782555e-06,7.119775e-05,0.9701469,6.502867e-05,4.3958426e-05,0.9996241,0.017698884,3.7640333e-05,0.005442381,1.4901161e-06
0.02066055,2.592802e-06,0.0017623901,7.688999e-06,2.9802322e-07,0.8891058,0.0011787415,0.00026777387,0.0010813773,0.00084015727
1.1324883e-06,2.8192997e-05,0.012040257,8.97944e-05,1.5109777e-05,0.9999977,0.013952911,8.970499e-06,0.0104599595,3.606081e-06
0.9921531,0.0,2.4735928e-06,2.0861626e-07,0.0,0.0005365908,0.0009770095,7.5101852e-06,0.00063309073,9.596348e-06
8.493662e-06,0.0,3.5762787e-07,7.915497e-05,0.0,0.00012040138,0.0023953617,3.9339066e-06,0.9999555,1.7881393e-07
0.00021353364,0.0,0.00013846159,1.0728836e-06,0.0,0.00012844801,0.0042906106,2.2947788e-06,0.9997958,1.1920929e-07
0.00029602647,0.0,1.04904175e-05,4.172325e-07,1.4901161e-07,4.476309e-05,0.0022657514,3.7282705e-05,0.99814236,0.0001000762
0.810135,1.4901161e-07,9.23872e-07,2.4139881e-05,0.0,0.0034670532,0.0018135905,7.599592e-06,0.7749511,5.2899122e-05
1.2606382e-05,1.1920929e-07,1.2278557e-05,6.0498714e-06,5.9604645e-08,8.3863735e-05,0.005759299,0.0,0.9999751,6.0796738e-06
0.0010392964,0.86398697,0.025790751,0.0011489689,4.0620565e-05,0.013454467,0.07372585,8.136034e-06,0.11500999,0.14194155
4.053116e-06,6.3180923e-06,0.012122601,0.99993813,0.0092611015,0.0009969473,0.0050533414,1.7881393e-07,0.09275359,7.748604e-07
0.99273837,0.0,2.9802322e-07,5.364418e-07,0.0,0.0010248125,0.001088351,2.0861626e-07,0.0044894814,1.1771917e-05
0.004702717,2.9802322e-07,4.3809414e-05,2.0593405e-05,5.9604645e-08,0.00054073334,0.0024014115,6.2286854e-06,0.9956192,6.097555e-05
0.122008264,1.7881393e-07,4.1007996e-05,0.00014081597,4.6283007e-05,0.0021656752,0.0049726367,9.924173e-06,0.7402168,4.941225e-05
1.5795231e-06,0.00045001507,0.06285602,0.00064614415,5.8591366e-05,0.009993464,0.027301192,4.261732e-06,0.99885404,0.000500381
0.3287182,0.00012263656,0.11711487,1.5348196e-05,3.874302e-07,0.0036756396,0.04765126,0.004684001,0.0056387186,0.054893523
0.32733583,2.3543835e-06,8.285046e-06,2.682209e-07,0.00023156404,0.0014630556,0.027254432,3.5762787e-07,0.0004259944,0.6639734
0.9952704,0.0,2.0861626e-07,5.9604645e-07,0.0,0.0008895397,0.00075787306,1.1920929e-06,9.253621e-05,1.5735626e-05
0.98752964,0.0,4.4703484e-07,1.8775463e-06,0.0,0.0019052625,0.0009161234,3.0070543e-05,0.0016086698,0.0025835037
0.97133505,0.0,4.2021275e-06,2.9802322e-08,0.0,0.0008010864,0.0011904836,0.00030818582,0.001432687,0.0009615123
4.7683716e-05,0.05145055,0.71009445,3.516674e-06,2.861023e-06,0.010579675,0.105054736,7.897615e-06,0.0034255981,0.00215137
0.004083872,8.940697e-08,0.008991897,9.775162e-06,4.7683716e-07,0.0011077523,0.013724953,0.00022482872,0.98911583,5.1021576e-05
9.447336e-06,0.9915365,0.03129089,0.2068648,8.5651875e-05,0.019453198,0.0052037537,6.7949295e-06,0.37679297,0.00075414777
0.96905816,0.0,9.536743e-07,4.4703484e-07,1.2814999e-06,0.0004889369,0.0010050535,8.940697e-08,0.0016180575,6.502867e-05
0.9331019,0.0,7.748604e-07,2.2649765e-06,2.3841858e-07,0.00081825256,0.0007749498,1.7881393e-07,0.05267358,0.00071391463
0.0,0.0020987093,0.32823798,0.99989873,0.0006275773,0.006443113,0.114358366,0.0,0.0041806996,1.1026859e-06
3.9041042e-06,0.9981433,0.002983749,0.0009520352,8.940697e-07,0.014844179,0.0037008822,1.013279e-06,0.39800775,0.00035217404
0.00010690093,0.0,1.2636185e-05,1.013279e-06,2.3841858e-07,2.425909e-05,0.0020721555,5.9604645e-08,0.99990076,1.5795231e-06
0.99467397,5.9604645e-08,7.748604e-07,8.940697e-08,0.0,0.0013303459,0.011710167,1.1920929e-07,0.0002387464,0.00017258525
2.643466e-05,4.172325e-07,0.00016868114,0.009777039,4.9442053e-05,0.00056281686,0.011368364,8.7320805e-06,0.99893725,0.000113874674
6.28829e-06,0.0,3.0398369e-05,1.0877848e-05,0.26811993,1.847744e-05,0.011543304,4.7683716e-07,0.99912214,1.1026859e-06
0.9965155,0.0,2.9802322e-07,1.4901161e-07,2.9802322e-08,0.00063213706,0.00086924434,1.7672777e-05,0.0003683269,7.125735e-05
2.3841858e-07,1.0997057e-05,0.0011825264,1.424551e-05,2.1755695e-05,0.9998463,0.025644153,3.3080578e-06,0.832829,0.0015641451
1.1920929e-07,0.42772448,0.27391267,0.040849566,0.00034174323,0.9994879,0.006523907,5.066395e-06,0.76501834,1.49309635e-05
0.0065621734,0.0,4.142523e-06,0.98719996,5.066395e-07,0.0020757914,0.0021577477,1.090765e-05,9.3728304e-05,3.5226345e-05
0.9940438,0.0,1.1920929e-07,5.364418e-07,0.0,0.00017207861,0.0005244911,4.7445297e-05,0.0003311038,1.7881393e-05
0.018730104,4.172325e-07,5.3793192e-05,1.758337e-06,1.1920929e-07,4.285574e-05,0.0016791523,0.91804147,0.012313664,0.00344643
0.02336827,3.105402e-05,0.79292965,6.4074993e-06,1.847744e-06,0.002908975,0.0046444833,3.8206577e-05,0.37076667,0.00054478645
0.8872347,0.0,5.9604645e-08,1.6391277e-06,5.9604645e-08,0.00017240644,0.0002245009,0.07779962,4.836917e-05,0.00015121698
0.99690527,0.0,2.3841858e-07,5.9604645e-08,0.0,0.00051933527,0.0009561181,8.34465e-07,0.000101178885,0.00018462539
8.940697e-08,0.0022497177,0.0006619394,0.99932003,0.00011101365,0.0008697212,0.3831061,0.0,0.642121,0.00026586652
0.9794148,0.0,9.655952e-06,2.682209e-07,9.23872e-07,0.0010774732,0.005218476,0.00020551682,4.720688e-05,6.330013e-05
0.009698451,8.940697e-08,0.0005259514,2.503395e-06,5.9604645e-07,0.002292186,0.0035629272,0.00052317977,0.9899895,0.0001308024
0.00086435676,3.8444996e-06,8.34465e-07,1.0728836e-06,3.2186508e-06,0.0014860928,0.9872036,8.940697e-08,0.08344138,0.0007876456
0.0,9.834766e-07,1.475215e-05,0.999999,0.00033527613,0.00024867058,0.019632518,7.748604e-07,0.0007548928,1.3709068e-06
0.9905331,0.0,2.026558e-06,1.7881393e-07,5.9604645e-08,0.0010833144,0.00097212195,1.8775463e-06,0.0001822412,2.2113323e-05
0.9982982,0.0,2.9802322e-08,1.1920929e-07,0.0,0.0005119443,0.001016438,5.9604645e-08,7.879734e-05,3.0755997e-05
6.943941e-06,6.687641e-05,0.000762254,0.00022158027,0.0001924634,0.9968865,0.059024185,3.1590462e-06,0.005484462,0.00641191
3.5762787e-07,0.0,2.30968e-05,2.1457672e-06,2.0861626e-07,7.292628e-05,0.0030304193,0.0002669394,0.99912727,0.00047403574
1.7881393e-07,1.4901161e-07,1.4603138e-06,1.9550323e-05,8.940697e-08,5.7965517e-05,0.3806407,1.4901161e-06,0.9999373,1.5288591e-05
0.00068733096,2.9802322e-08,3.695488e-06,8.225441e-06,3.5762787e-07,0.0009762645,0.004368663,8.940697e-08,0.9986,0.000153929
4.351139e-06,3.3050776e-05,0.9834417,9.834766e-06,0.00012084842,0.006045252,0.13852942,4.0233135e-06,0.53875726,0.00021508336
0.9901855,0.0,9.23872e-07,1.630187e-05,0.0,0.0009022057,0.0009900033,5.453825e-06,0.00046736002,0.00020861626
1.1920929e-07,3.8444996e-06,1.937151e-06,0.0,0.0,0.0,1.4007092e-06,0.0,2.9802322e-07,0.99407965
0.0033318996,0.0,0.00041538477,8.136034e-06,0.9915141,0.00014567375,0.0022518635,4.172325e-07,0.00011524558,0.00037243962
0.9683803,1.7881393e-07,3.4958124e-05,3.2782555e-07,0.0,0.0017262697,0.0017019808,6.2584877e-07,0.0030733645,0.018323302
0.08865771,4.5835972e-05,0.0012269318,0.000177145,0.00010073185,0.0052909255,0.011422187,0.00022467971,0.04671356,0.38180858
0.9913269,0.0,1.013279e-06,1.5497208e-06,0.0,0.0015613735,0.0013129711,2.9802322e-07,0.0049488246,4.386902e-05
1.1920929e-07,0.0,5.891919e-05,2.0861626e-07,0.0,2.3841858e-07,1.3649464e-05,0.0,3.5762787e-07,0.99999166
0.00040382147,0.0,0.00013127923,0.00016316772,2.8908253e-06,0.0005515814,0.004636556,0.000597775,0.992937,0.00019365549
0.08429322,2.3841858e-07,7.8082085e-06,0.021851271,5.632639e-06,0.0065883696,0.003207475,7.1525574e-07,0.6104,0.012536883
0.99489826,0.0,2.0861626e-06,0.0,0.0,0.00021961331,0.0008556545,5.9604645e-08,7.545948e-05,3.3706427e-05
7.867813e-06,1.0937452e-05,1.3411045e-06,4.61936e-06,4.172325e-06,0.008927405,0.9987814,1.9967556e-06,0.0016212761,0.00051656365
8.046627e-07,6.9737434e-06,0.0019811988,0.00014126301,0.00017559528,0.9999982,0.00556612,1.3798475e-05,0.2091783,5.3614378e-05
4.592538e-05,5.9604645e-08,2.69413e-05,0.9999404,1.8179417e-06,0.00075250864,0.0034574568,1.1742115e-05,9.292364e-05,3.8564205e-05
0.9870396,8.940697e-08,4.8577785e-06,8.940697e-08,2.9802322e-08,0.0027450323,0.005406052,3.1590462e-06,0.000117212534,0.0020044744
1.3530254e-05,0.0,2.503395e-06,0.99999607,6.854534e-07,0.00015196204,0.00076171756,1.7881393e-07,0.00072836876,2.2351742e-06
2.0861626e-07,0.8696855,0.00464347,0.99980974,5.2839518e-05,0.001680702,0.003546685,1.1920929e-07,0.13561904,2.554059e-05
0.99416876,0.0,3.0696392e-06,1.1920929e-07,1.1920929e-07,0.00086173415,0.0012277663,1.23381615e-05,7.7843666e-05,0.00077575445
6.645918e-06,1.4960766e-05,0.001829207,0.012459964,0.10209739,0.999833,0.01619929,0.0033721328,0.0024006665,6.240606e-05
2.2649765e-06,0.0,2.5331974e-06,0.99999905,8.940697e-08,9.971857e-05,0.0022055507,1.7881393e-07,1.6480684e-05,1.1920929e-07
5.3346157e-06,0.0,1.1563301e-05,5.9604645e-08,0.0,3.567338e-05,0.001008898,1.0043383e-05,0.9999566,2.3543835e-06
0.0010687411,2.3841858e-07,1.6093254e-06,0.9984073,1.4901161e-06,0.0022101998,0.0021980107,7.748604e-07,0.012184769,2.503395e-06
4.851818e-05,1.1354685e-05,0.0003477335,0.00056159496,0.00015228987,0.00013580918,0.0020147562,0.0,0.0045319498,0.94726896
5.662441e-07,0.0,1.7881393e-07,0.99999815,0.0,2.1129847e-05,0.0019088387,2.0861626e-07,1.180172e-05,3.5762787e-07
0.0021928549,0.0004182756,3.784895e-06,6.377697e-06,5.9604645e-08,0.009119153,0.8165319,7.748604e-07,0.6046583,0.0007504523
0.9969705,0.0,8.940697e-07,1.1920929e-07,0.0,0.00081405044,0.0012053549,1.5616417e-05,0.00014173985,1.9520521e-05
0.99902844,0.0,1.4901161e-07,2.9802322e-08,0.0,0.0002449751,0.0011200011,6.854534e-07,8.672476e-06,1.4960766e-05
0.7205238,8.940697e-08,4.479289e-05,0.0001284182,6.2584877e-07,0.0028584301,0.0014870763,0.021647513,0.021305084,0.0028646886
0.0076046884,3.4570694e-06,3.9041042e-06,0.00033974648,5.9604645e-08,0.005764067,0.89070493,0.060893178,4.544854e-05,0.00026214123
5.9604645e-08,0.0,1.013279e-06,0.9999839,2.193451e-05,0.00030249357,0.0016579032,0.0,0.89172375,0.0
2.9742718e-05,0.00038945675,0.025355905,1.731515e-05,0.00012868643,0.9714458,0.04013455,9.834766e-07,0.34431243,0.051139653
0.11257225,0.0,2.115965e-06,4.172325e-06,1.3411045e-06,0.0013915896,0.0025059283,6.2584877e-07,0.7148283,0.0030098855
2.3841858e-07,0.00826174,0.37384236,0.0023619235,3.552437e-05,0.0008533299,0.47891805,2.3841858e-07,0.99759245,6.097555e-05
0.35515773,0.0,1.7881393e-07,0.0,5.9604645e-08,4.2557716e-05,0.0005450249,0.53228253,0.00016614795,4.5001507e-06
0.0026452541,4.7683716e-07,0.00028127432,2.0176172e-05,1.2069941e-05,0.00018051267,0.0063245893,4.4703484e-07,0.9970691,0.00036364794
0.9899578,0.0,7.033348e-06,7.7188015e-06,5.9604645e-08,0.0020866394,0.0018777251,0.00031995773,9.351969e-05,0.00013422966
0.9826862,0.0,2.3841858e-07,1.1026859e-06,0.0,0.0015960038,0.0016825497,2.0861626e-07,0.013860315,0.00014638901
0.0018422902,4.7385693e-06,0.98592305,2.8133392e-05,8.940697e-08,0.0011796653,0.004792303,1.2516975e-06,0.017637342,3.9964914e-05
0.99669456,0.0,3.7252903e-06,0.0,0.0,0.00063982606,0.0010166466,3.0994415e-06,0.00057047606,0.00024986267
1.6987324e-06,0.0,3.5464764e-06,4.2647123e-05,0.0,4.118681e-05,0.0009364784,5.155802e-06,0.99875927,0.0028826594
0.38268864,0.0,7.867813e-06,3.3676624e-06,1.758337e-06,0.0013934672,0.004059434,1.0728836e-06,0.6472138,0.00014743209
0.9875754,0.0,2.0295382e-05,5.2452087e-06,2.771616e-06,0.001647681,0.0020691454,7.4505806e-07,0.00047320127,0.00039625168
0.009065837,8.940697e-08,1.2993813e-05,6.854534e-07,6.5863132e-06,0.00027695298,0.004699677,0.0,0.8974718,0.002753824
0.12412223,5.9604645e-08,2.2649765e-06,2.592802e-06,8.940697e-08,0.0004261434,0.0019183755,6.2584877e-07,0.967607,9.569526e-05
2.9802322e-07,3.3020973e-05,0.99939746,0.005257815,0.0010125339,0.0023533106,0.023139626,7.408857e-05,0.027611643,0.003648281
5.9604645e-08,0.0,2.9206276e-06,2.9802322e-08,0.0011853576,2.6285648e-05,0.008906245,0.0,0.99990386,5.364418e-07
4.3302774e-05,0.00031596422,0.0018077493,9.7066164e-05,0.20824793,0.0023562014,0.12149745,5.349517e-05,0.026626348,0.2685079
0.19962415,0.0,6.2584877e-07,8.314848e-06,2.9802322e-08,0.0006173551,0.0025672019,2.3841858e-07,0.9699805,3.7044287e-05
1.9818544e-05,0.0,2.6226044e-06,8.434057e-06,0.0,5.0842762e-05,0.00471133,2.9802322e-08,0.9999843,3.5762787e-07
0.9935821,0.0,4.172325e-07,8.940697e-08,1.4901161e-07,0.0006274283,0.0025620162,2.9802322e-07,0.00042194128,0.00021401048
0.006234348,1.7881393e-07,5.00679e-06,6.16312e-05,3.5762787e-07,0.0010216832,0.007964939,1.1026859e-06,0.98650575,0.0027459264
3.5762787e-07,2.592802e-06,0.3003614,3.156066e-05,2.8818846e-05,0.9998461,0.01014936,1.5795231e-06,0.96095836,3.516674e-06
0.08856347,8.6426735e-07,3.5762787e-05,3.784895e-06,2.9802322e-08,0.008061498,0.0103108585,7.2717667e-06,0.9218532,0.00022888184
0.9703362,0.0,3.3974648e-06,1.32620335e-05,0.0,0.0030435622,0.0013350844,3.2782555e-06,0.037688196,8.019805e-05
0.98887306,0.0,3.1292439e-06,1.847744e-06,4.172325e-07,0.0038372278,0.0012581944,6.2584877e-06,0.00021708012,0.0007981062
7.8588724e-05,0.0,5.00679e-06,4.9471855e-06,5.9604645e-08,0.000225842,0.005290866,1.6093254e-06,0.99982464,3.1292439e-06
0.00011870265,2.682209e-07,0.99954796,6.556511e-07,8.34465e-07,0.00041472912,0.0011839569,5.662441e-07,0.00093975663,1.3381243e-05
0.9964056,0.0,1.7881393e-07,1.1920929e-07,2.0861626e-07,0.00022086501,0.00077974796,1.1920929e-07,0.00014647841,1.6182661e-05
0.9526472,0.0,6.467104e-06,2.9802322e-07,4.172325e-07,0.0016946495,0.0022857487,1.12354755e-05,0.006306261,0.0007096529
0.98328614,0.0,2.0861626e-07,8.940697e-08,0.0,9.188056e-05,0.0006502867,0.00197047,5.9604645e-05,0.00018259883
8.940697e-08,0.00013145804,0.9620395,0.00061041117,0.00015422702,0.97816706,0.007575184,1.2814999e-06,0.985138,4.887581e-06
0.99192953,0.0,2.592802e-06,0.0,8.940697e-08,0.0002786517,0.0012382865,1.0460615e-05,0.0012098253,1.9013882e-05
1.1503696e-05,0.6591585,0.0054922104,0.0013302863,1.0430813e-06,0.005249977,0.047690958,1.6987324e-06,0.98647106,0.0017313361
7.8082085e-06,0.96512437,0.02115503,0.001959771,4.389882e-05,0.96600485,0.0018900037,5.2154064e-06,0.10783449,0.0022403002
0.17926836,5.9604645e-08,2.5629997e-06,6.2823296e-05,1.7881393e-07,0.0025059283,0.004270494,2.3841858e-07,0.8643471,4.1097403e-05
1.1920929e-07,8.940697e-08,0.00019955635,0.99999344,0.5867969,0.0016846359,0.0062188804,3.5762787e-07,0.004996747,1.7881393e-07
0.94365513,8.940697e-08,9.188056e-05,6.6161156e-06,1.1920929e-07,0.0021603107,0.004166931,2.3722649e-05,0.09609109,7.277727e-05
0.00010576844,5.9604645e-08,0.00015372038,1.22487545e-05,1.1920929e-07,0.00030136108,0.0041772425,5.6028366e-06,0.9979076,0.0012152791
0.01121676,0.0034717321,1.2874603e-05,2.3901463e-05,1.4901161e-07,0.006233245,0.86455023,1.0579824e-05,0.051680684,0.0006710887
1.6093254e-06,0.0,2.3841858e-07,0.9999998,1.1920929e-07,0.00021445751,0.0015565455,0.0,4.8577785e-06,0.0
9.435415e-05,2.849102e-05,5.9604645e-08,2.0563602e-06,5.9604645e-08,0.0010498464,0.9979514,3.2484531e-06,0.000315547,0.0019604266
0.84158206,0.0,9.834766e-07,3.0100346e-06,1.1920929e-07,0.0014766455,0.0016207099,8.34465e-07,0.39755577,0.00029948354
0.9597894,0.0,5.8084726e-05,2.682209e-07,3.5762787e-07,0.00056502223,0.0021009445,0.010988176,8.776784e-05,4.3809414e-05
1.9669533e-06,0.001688689,0.0036664605,0.0041627586,0.00769338,0.9971463,0.13299137,0.00088503957,0.01035583,0.005415857
6.67572e-06,2.9802322e-08,1.552701e-05,1.9818544e-05,2.9802322e-08,0.00016224384,0.0070690513,1.1920929e-07,0.99996245,6.377697e-06
4.172325e-07,0.0004886389,0.0436441,0.98657286,4.503131e-05,0.0012019575,0.021606535,8.940697e-08,0.9801598,2.8908253e-06
0.20966437,4.172325e-07,9.000301e-06,9.745359e-06,9.834766e-07,0.00057795644,0.0013747811,2.9802322e-08,0.7925435,0.020865977
5.632639e-06,0.0014172792,2.6524067e-05,4.9203634e-05,5.6028366e-06,0.0019305646,0.8486422,0.0,0.97177786,0.00077086687
0.9921168,0.0,1.5795231e-06,4.172325e-07,1.1920929e-07,0.0015305579,0.001686126,4.068017e-05,3.9339066e-05,0.00016224384
0.9874861,0.0,8.34465e-07,7.6293945e-06,0.0,0.0009925067,0.0007863939,0.00041905046,4.3183565e-05,0.00043040514
6.735325e-06,2.9802322e-08,1.1920929e-06,0.9999985,1.013279e-06,0.0001539886,0.0011136234,0.0,0.00018936396,6.2584877e-07
0.99495363,0.0,1.1026859e-06,1.1920929e-07,0.0,0.0030632913,0.0035635233,5.6624413e-06,0.00015681982,5.272031e-05
0.009324312,3.6805868e-05,0.0003427863,3.606081e-06,3.3915043e-05,0.002278179,0.010983974,4.172325e-07,0.60632026,0.47996685
0.086569846,0.0,1.2814999e-05,0.00018748641,3.811717e-05,0.0020801127,0.0006314218,0.82042634,0.030592173,0.0019860864
8.016825e-06,0.0,2.3245811e-06,7.4505806e-06,8.940697e-08,4.8726797e-05,0.0024951398,2.503395e-06,0.9999759,1.2218952e-06
1.4573336e-05,0.0,5.066395e-07,0.9999469,1.9967556e-06,0.00023666024,0.0011439025,5.9604645e-08,0.0037079751,8.940697e-08
2.2053719e-06,0.90847325,0.01717037,0.00047388673,0.49027538,0.0028360784,0.04615757,3.5762787e-06,0.012091368,0.0018823147
2.6762486e-05,8.940697e-08,0.00023972988,0.00057804585,2.6196241e-05,0.0007506013,0.0013646781,3.5196543e-05,0.001637876,0.9810967
3.8444996e-06,5.9604645e-08,7.4505806e-07,0.9999974,1.0162592e-05,0.00038209558,0.00125283,5.9604645e-08,0.00016194582,1.1920929e-07
9.924173e-06,0.0,4.4703484e-06,0.9999974,1.13248825e-05,0.00047904253,0.003559649,0.0,0.009999484,2.682209e-07
0.001532942,0.0,9.834766e-07,9.745359e-06,2.3841858e-07,0.0002232194,0.003966689,6.854534e-07,0.9986448,5.364418e-06
0.8888704,5.9604645e-08,5.722046e-06,2.3841858e-06,4.7683716e-07,0.0029044151,0.0035707653,1.4901161e-06,0.16663224,0.00074088573
0.99749744,0.0,5.066395e-07,8.940697e-08,0.0,0.00015112758,0.00044748187,9.596348e-05,9.825826e-05,1.180172e-05
8.136034e-06,0.0001244545,0.00016796589,0.0021589994,0.00011405349,0.005367607,0.9682138,0.004432529,0.000105172396,0.035619617
0.031779498,5.9604645e-08,1.0699034e-05,0.000112205744,1.8715858e-05,0.0015137494,0.0040772557,2.9802322e-07,0.9715912,0.0004990399
0.9974777,0.0,2.0861626e-07,0.0,0.0,0.0003746152,0.0006983876,2.9802322e-07,9.560585e-05,0.0009238422
0.988508,0.0,6.854534e-07,8.34465e-07,2.682209e-07,0.0007561147,0.003479004,1.66893e-06,0.00018981099,0.0006521344
0.0004054308,1.7881393e-07,0.00037890673,0.00027775764,9.089708e-06,0.00055736303,0.006232381,0.9853546,0.01213488,0.0027097762
0.99041766,0.0,3.260374e-05,3.5762787e-07,1.4901161e-07,0.002830267,0.0014488995,1.7434359e-05,0.002935499,0.00014707446
0.6704974,0.0,1.3113022e-06,2.9206276e-06,0.0,0.0002310574,0.0003091991,0.8207497,6.005168e-05,8.288026e-05
5.9604645e-08,7.4505806e-07,0.99301535,2.43783e-05,8.940697e-07,2.6524067e-05,0.008885384,2.9802322e-08,0.9993148,2.0861626e-07
9.083748e-05,8.940697e-08,0.9994291,6.2584877e-07,0.000118881464,0.0021532774,0.0021223426,2.413988e-06,0.07495174,4.7385693e-06
0.98944324,1.4901161e-07,0.00097844,2.9802322e-07,3.2782555e-07,0.000736326,0.0036720335,1.1712313e-05,6.0796738e-05,0.00027409196
6.2584877e-07,2.9176474e-05,0.0014848709,0.0027390718,5.7041645e-05,0.9999995,0.0030541122,0.00025856495,0.009157151,6.118417e-05
0.2041224,4.172325e-07,0.0006636977,2.9802322e-08,3.2782555e-07,0.00010314584,0.003946632,0.0004480183,4.6759844e-05,0.28425506
0.8932476,0.0,5.2452087e-06,4.4703484e-06,5.9604645e-08,0.003892213,0.0018461049,0.0008840859,0.0044343174,0.006362736
0.00010409951,0.0006967187,0.9498201,4.634261e-05,0.00022175908,0.007261604,0.033099502,3.2782555e-07,0.12809744,0.0040181875
3.993511e-06,1.9669533e-06,0.99522454,0.30573988,0.00027534366,0.0047427416,0.031921417,0.021304548,0.00042769313,3.0338764e-05
0.0,0.053669035,0.00012820959,0.99999344,0.009898186,0.04978186,0.41748855,2.0861626e-07,0.009347051,6.3180923e-06
7.748604e-07,1.4305115e-06,0.0004146397,0.9998882,0.0025920868,0.0021511018,0.0034435093,5.9604645e-08,0.09246358,0.00020360947
4.2021275e-06,0.07167044,2.9802322e-08,0.0021285415,0.0,7.110834e-05,0.020019144,2.9802322e-08,0.44140252,1.8328428e-05
1.5497208e-06,6.943941e-06,0.9870185,0.9839691,0.00017663836,0.0009871423,0.0052933395,1.6391277e-06,0.0005334914,0.00012856722
0.9914627,0.0,2.592802e-06,5.543232e-06,5.9604645e-08,0.0017862618,0.002859652,7.897615e-06,0.0002090931,0.00020051003
0.005909741,0.0,2.6494265e-05,3.9041042e-06,0.9346569,0.0020172596,0.002322942,5.364418e-07,0.10658294,9.590387e-05
8.34465e-07,0.24943101,0.017438084,0.0031476617,6.854534e-07,0.001108259,0.06748381,2.9802322e-07,0.9986942,8.901954e-05
1.6659498e-05,0.0,7.1525574e-07,8.5532665e-06,5.9604645e-08,0.00040587783,0.0058612823,1.1920929e-07,0.9997375,0.00013747811
0.9302567,0.0,3.9041042e-06,3.2037497e-05,0.0,0.0023896098,0.002928108,0.021697998,8.5532665e-06,0.00018402934
0.98316586,0.0,3.1888485e-06,2.5331974e-06,1.4901161e-07,0.00076311827,0.0006944239,2.682209e-07,0.00028151274,0.0005168319
0.0,0.00016659498,0.00017291307,0.9999522,4.9203634e-05,8.800626e-05,0.023031443,2.9802322e-08,0.99746585,0.0
0.89783525,0.0,2.0861626e-05,6.854534e-07,0.0,0.0026270747,0.0011173487,2.9802322e-07,0.2995575,0.0021643639
4.4941902e-05,1.1622906e-06,0.99938786,0.0015181005,2.3245811e-06,0.0010091066,0.0036536753,1.8775463e-06,0.00015056133,1.5467405e-05
1.3977289e-05,2.5331974e-05,0.98681617,0.008538306,6.2286854e-06,0.002488047,0.0022591054,1.4901161e-06,0.12224609,4.091859e-05
0.94268435,0.0,2.9236078e-05,3.1292439e-06,4.172325e-07,0.0010980666,0.0015044808,9.23872e-07,0.015055478,0.00021222234
0.0002156496,0.0,3.1143427e-05,2.8908253e-06,2.4437904e-06,9.3996525e-05,0.0010054111,9.536743e-07,0.99854434,0.00034335256
0.13674885,0.00050747395,0.63677186,1.30832195e-05,1.1920929e-06,0.011413932,0.053310186,0.00020620227,0.0052061975,0.0007187128
1.6629696e-05,0.99895364,0.00060138106,0.029520899,3.8981438e-05,0.04289624,0.0022031367,0.0,0.19693622,0.00050765276
0.99525976,0.0,1.4066696e-05,5.364418e-07,0.0,0.0008417666,0.0015000105,1.4603138e-06,0.00031805038,0.00012654066
0.9956651,2.9802322e-08,8.6426735e-07,2.682209e-07,0.0,0.0016567409,0.0028657913,6.2584877e-07,0.0005466044,0.00013646483
0.056271136,2.0861626e-07,0.3837804,1.9460917e-05,6.2584877e-06,0.0016881824,0.0044077635,6.067753e-05,0.61485213,0.00026977062
2.3841858e-07,4.053116e-06,2.3841858e-06,0.9999992,8.34465e-06,0.00049328804,0.008186907,0.0,0.06941068,1.1920929e-07
0.06713754,0.0,8.6426735e-07,6.2584877e-07,0.0,0.00088366866,0.0016391873,2.0861626e-06,0.94058305,5.2571297e-05
0.023204446,1.4901161e-07,2.9593706e-05,3.6388636e-05,1.7285347e-06,0.0014930665,0.0067117214,3.373623e-05,0.9854852,0.00011995435
1.5795231e-06,0.99748284,0.0038695633,0.03744185,1.2814999e-06,0.041928917,0.0023884177,2.0861626e-07,0.8187048,0.00031140447
2.9802322e-07,2.9802322e-08,1.4901161e-06,0.9999995,4.798174e-06,0.00033527613,0.0055453777,0.0,0.000631094,0.0
0.9940537,0.0,7.748604e-07,0.0,0.0,0.00014707446,0.0011728406,0.0002911389,5.2928925e-05,4.810095e-05
0.9957957,0.0,1.7881393e-07,2.0861626e-07,0.0,0.0011563897,0.002108544,3.4570694e-06,0.00017771125,4.9173832e-05
0.9418129,2.9802322e-08,3.5762787e-06,3.5762787e-07,0.0,0.070786625,0.0019355714,5.9604645e-07,3.093481e-05,1.2278557e-05
0.0049812496,7.7188015e-06,0.0005323589,0.0002887249,1.1652708e-05,0.0037381947,0.020246208,0.00013902783,0.16162461,0.5281218
9.953976e-06,0.9860984,0.00010815263,0.0013183057,2.0861626e-07,0.0014387965,0.0019330382,0.0,0.99776125,2.4914742e-05
7.212162e-06,0.00011393428,0.015149295,0.0002618432,0.0031805038,0.9999803,0.028836727,0.00023585558,0.3584268,0.000102221966
0.9943135,0.0,2.3841858e-07,1.4305115e-06,0.0,0.0024386346,0.0018938482,1.7881393e-07,0.00088104606,5.337596e-05
1.013279e-06,0.00010642409,0.9390638,0.00019437075,0.005426973,0.0043851435,0.15942365,3.0249357e-05,0.002847284,0.021656126
0.0962145,6.109476e-06,0.021027982,7.390976e-06,4.7385693e-06,0.0014696419,0.008464456,0.005087197,0.0013913512,0.3722803
3.0100346e-06,2.3841858e-07,0.023045301,8.928776e-05,0.75931585,5.2392483e-05,0.0064696074,4.7683716e-07,0.9995419,3.695488e-06
4.8190355e-05,8.407235e-05,0.00012376904,0.00036877394,2.0563602e-06,0.99950534,0.3306731,3.427267e-05,0.013171047,5.0216913e-05
0.90860134,4.0233135e-06,2.0861626e-05,9.208918e-06,4.887581e-06,0.0014409721,0.00067543983,4.172325e-07,0.12939644,0.0017978549
0.9072888,7.2717667e-06,0.0001540482,2.0861626e-07,2.9802322e-08,0.00031977892,0.0015520453,2.5331974e-06,0.00010573864,0.24902052
3.245473e-05,0.99638534,0.0005043149,0.01677239,1.0550022e-05,0.0062995553,0.008457124,0.0,0.07797748,0.007819533
0.9917488,0.0,1.4305115e-06,4.172325e-07,0.0,0.0028461516,0.0066289008,1.0937452e-05,0.00013360381,7.599592e-06
0.0009497702,0.0,9.062886e-05,4.8547983e-05,3.6358833e-06,0.0004903674,0.004172325,3.3944845e-05,0.9981656,9.924173e-06
2.682209e-07,7.212162e-06,1.6957521e-05,9.745359e-06,1.3411045e-06,0.011385381,0.93724495,5.662441e-07,0.86694986,0.0069158673
0.9977776,0.0,2.3841858e-07,8.940697e-08,0.0,0.00026509166,0.00071820617,6.854534e-07,0.0002220869,1.8328428e-05
0.00010505319,9.447336e-06,0.00059223175,8.046627e-06,9.23872e-07,0.9997084,0.004512787,3.4362078e-05,0.094649106,0.00011488795
0.031097353,1.4007092e-06,0.96522295,2.9802322e-07,8.940697e-08,0.0011033118,0.0060168207,0.018264621,0.00015646219,4.6133995e-05
1.1622906e-05,2.0861626e-07,8.612871e-06,0.99999297,2.0861626e-07,0.00029081106,0.00095689297,0.0,0.0006583333,8.940697e-08
0.06278965,4.4703484e-07,0.0015400946,9.089708e-06,3.784895e-06,0.00062283874,0.0025131404,0.052122653,0.005886197,0.9213044
0.556972,5.9604645e-08,1.1920929e-07,1.2516975e-06,0.0,0.00022146106,0.0012661219,1.0728836e-06,0.7901095,1.4334917e-05
0.04993719,1.7374754e-05,5.1796436e-05,1.1622906e-06,5.662441e-07,0.0006366968,0.4440003,8.34465e-07,7.390976e-05,0.005123794
0.016445696,2.9802322e-08,1.7285347e-06,1.3917685e-05,2.9802322e-08,0.0008751154,0.0022967458,1.1920929e-07,0.99640095,3.0040741e-05
0.00017976761,0.96655726,0.0022297204,0.0019717813,2.0444393e-05,0.007613778,0.008330166,1.1920929e-07,0.03593093,0.011185199
0.9925846,0.0,1.4901161e-07,3.427267e-06,2.9802322e-08,0.0014936626,0.0011681616,2.9802322e-07,0.00053319335,0.00020840764
0.042792052,3.3080578e-06,6.28829e-05,6.4074993e-06,2.9802322e-08,0.00037395954,0.0019883513,0.0,0.69272536,0.0966796
0.99189067,0.0,1.4901161e-07,0.0,0.0,0.00027757883,0.00074729323,1.1920929e-07,0.0016017556,0.00023129582
0.21897343,1.7881393e-07,0.875504,3.5762787e-07,0.0,0.00047898293,0.0025901794,0.00031790137,8.702278e-05,4.8458576e-05
0.9390658,0.0,2.413988e-06,3.0398369e-06,0.00010675192,0.00083097816,0.0015747249,8.940697e-07,0.0015312433,0.008911669
0.9888307,0.0,4.7683716e-07,2.9802322e-08,8.940697e-08,0.00070270896,0.0020089447,0.00015163422,5.069375e-05,1.9162893e-05
0.0028864443,0.00011116266,4.428625e-05,0.00015106797,0.00014978647,0.00416252,0.9375771,3.5256147e-05,9.584427e-05,0.010501027
0.32410103,5.453825e-06,0.67510515,1.7881393e-06,1.1622906e-06,0.0018076003,0.0037329793,0.00014474988,0.0015183985,0.0011835694
0.97408795,0.0,1.1920929e-07,0.0,0.0,2.9802322e-05,0.0005776286,0.013214171,2.8014183e-06,6.4373016e-06
1.1920929e-07,2.3841858e-07,0.00038439035,0.00013566017,2.4199486e-05,0.99999833,0.0034913719,5.531311e-05,0.9443755,3.993511e-06
5.9604645e-08,1.1920929e-07,4.172325e-06,0.99999976,0.0005236864,0.0003093481,0.0040765703,8.940697e-08,2.82228e-05,5.9604645e-08
0.011671603,0.0,1.0102987e-05,2.9802322e-07,1.5497208e-06,0.00011086464,0.0015159249,5.364418e-07,0.9619783,0.0001733005
0.9962327,0.0,1.013279e-06,4.7683716e-07,0.0,0.001208365,0.0025926828,0.0,0.0008881688,0.00018441677
0.00028938055,6.2584877e-07,0.97629225,3.5762787e-07,0.010804653,0.00024226308,0.006288886,5.364418e-07,0.00014457107,0.0002859831
0.0,3.84748e-05,0.9949038,0.9942151,0.00043734908,0.0063714385,0.42396387,9.23872e-07,4.014373e-05,1.6391277e-06
0.99002707,2.9802322e-08,4.172325e-07,5.9604645e-08,1.7881393e-07,0.00034186244,0.0010491312,3.5762787e-07,0.003952712,0.0044724047
1.603365e-05,1.7881393e-07,0.00024271011,0.00016713142,3.5762787e-07,8.228421e-05,0.009118736,0.00026792288,0.9998163,1.3619661e-05
1.0877848e-05,4.0084124e-05,1.6093254e-06,6.556511e-06,5.066395e-07,0.007775426,0.9961457,1.4901161e-06,0.0012891293,0.0005225837
9.134412e-05,8.255243e-05,0.98718727,0.00021275878,0.0020503998,0.0026739836,0.010210246,3.2782555e-07,0.33569753,0.0014781356
0.0053236485,0.0,1.7225742e-05,1.4215708e-05,4.172325e-07,0.00021368265,0.0017637014,2.8789043e-05,0.9960127,3.1292439e-06
4.7683716e-07,0.38190508,0.01685986,0.001747638,0.00015068054,0.99411297,0.07019207,4.4703484e-06,0.14727727,0.00033795834
2.9802322e-07,2.3841858e-07,0.00013422966,0.99998903,1.1980534e-05,0.00033819675,0.0227471,2.3841858e-07,0.0002681613,0.0003900528
0.0,0.98817426,0.0040126443,0.99986106,3.889203e-05,0.027436316,0.031962395,0.0,0.017638206,3.0696392e-06
0.5359514,5.9604645e-08,4.082918e-06,1.5765429e-05,5.9604645e-08,0.0026840568,0.002070725,0.0029025376,0.6452991,0.00022748113
0.000849247,0.00018361211,0.00083369017,0.0005132258,3.7759542e-05,0.99986327,0.0066066682,0.001476109,0.043910116,4.452467e-05
0.9840673,0.0,4.61936e-06,4.172325e-07,5.364418e-07,0.00051021576,0.001650244,4.3809414e-06,0.003955692,0.00023013353
0.0,4.87566e-05,0.9795271,0.00026357174,0.0010642111,0.9997148,0.016203135,6.0349703e-05,0.07098827,2.7239323e-05
0.005930692,0.0,1.7881393e-06,0.00027361512,1.7881393e-07,0.0042648017,0.0020325184,0.0010113716,0.96945834,4.196167e-05
0.0,1.4305115e-06,7.0631504e-06,0.99999785,0.15095183,0.00055116415,0.008018762,1.3649464e-05,0.00015667081,1.5497208e-06
0.0003091991,0.0,6.5267086e-06,3.3080578e-06,2.0861626e-07,5.1796436e-05,0.002329737,3.5762787e-07,0.99981606,7.599592e-06
0.8209012,0.0,6.645918e-06,9.983778e-06,4.172325e-07,0.00048828125,0.0008522272,9.357929e-06,0.002478838,0.0018288493
2.682209e-07,0.0,2.682209e-07,0.9999995,0.00019267201,0.00056904554,0.001197964,0.0,0.017298877,2.9802322e-08
0.9847542,0.0,2.8014183e-06,2.5331974e-06,8.940697e-08,0.0017308593,0.0013227761,3.5762787e-07,0.0047414005,0.0006456971
3.5762787e-07,0.0,0.0,0.0,0.0,0.0,2.0861626e-07,0.0,1.7493963e-05,0.99999833
0.0,3.2156706e-05,4.2021275e-06,0.99999475,5.364418e-07,0.00088602304,0.97951233,2.9802322e-08,0.00016698241,5.9604645e-08
5.9604645e-08,3.2782555e-06,0.0001308024,4.902482e-05,0.035838038,0.9999981,0.011666894,0.0072912574,0.000862509,0.00013059378
0.98484457,0.0,3.33786e-06,1.4901161e-07,1.9669533e-06,0.029642344,0.0011253357,4.887581e-06,5.748868e-05,6.0886145e-05
2.9802322e-07,2.3841858e-07,1.4901161e-07,0.0,0.0,0.0,1.1920929e-07,8.940697e-08,5.9127808e-05,0.9999753
0.0018796921,2.0861626e-07,1.4066696e-05,2.4676323e-05,6.043911e-05,0.0012024939,0.033055782,5.3942204e-06,0.9920871,0.00042417645
0.0011526942,2.9802322e-08,1.9073486e-06,4.0233135e-06,1.1920929e-07,0.0001552701,0.0040187538,5.9604645e-08,0.99901557,1.5228987e-05
0.00826177,0.0,5.066395e-07,3.874302e-07,0.0,9.486079e-05,0.00038349628,1.1920929e-07,0.989514,0.00015109777
0.0042329133,0.0002734363,3.72231e-05,2.8818846e-05,4.172325e-06,0.0056024194,0.57469475,1.3619661e-05,0.00044557452,0.0011720061
0.14194381,1.7881393e-07,0.0007058978,4.3839216e-05,1.937151e-06,0.0036837459,0.007543206,0.5094249,0.0028318763,0.007622838
0.17854634,0.0007944703,0.43476024,2.8908253e-06,2.682209e-07,0.0007226765,0.0010395348,0.00023600459,0.00093218684,0.02749613
0.00015506148,0.0,4.7683716e-07,1.847744e-06,0.0,0.00045230985,0.004470557,2.3841858e-07,0.99954164,1.9073486e-06
2.0176172e-05,0.98135334,0.015541047,0.001383096,2.8908253e-06,0.01564145,0.06150347,1.9580126e-05,0.0049436092,0.005561322
1.3709068e-06,0.00016790628,0.0043669343,0.99891084,0.009444833,0.0037810504,0.009677619,0.0,0.14082137,9.769201e-05
0.0035971105,0.00094261765,0.005466044,0.00015506148,0.00024020672,0.0005786419,0.002691418,0.0,0.15611094,0.51791066
0.33751667,0.0,5.662441e-07,0.0,0.0,6.8724155e-05,0.0023491085,0.87047064,9.804964e-06,1.0758638e-05
1.4901161e-07,1.1920929e-07,2.193451e-05,0.99999774,0.0022914112,0.00015300512,0.00074109435,0.0,0.022347778,2.9802322e-08
0.9296193,8.940697e-08,3.8206577e-05,2.9802322e-07,5.662441e-07,0.0015685558,0.0032108724,4.300475e-05,0.06961018,0.00026392937
0.9943723,0.0,3.3974648e-06,4.23193e-06,0.0,0.0005426407,0.0011025369,4.172325e-07,9.652972e-05,6.377697e-06
0.9952756,0.0,1.4007092e-06,8.34465e-07,0.0,0.0020640194,0.0012972057,1.1175871e-05,0.0003758669,0.00019192696
0.96686983,0.0,5.364418e-07,0.0,5.9604645e-08,0.00029984117,0.00079745054,2.9802322e-08,0.047858775,0.00087830424
3.5762787e-07,0.0002630949,0.29974663,0.005875826,0.18825021,0.11149448,0.019221097,9.23872e-07,0.99821794,3.2484531e-06
0.0001899302,1.937151e-06,0.00067836046,0.00035309792,4.7683716e-07,0.999993,0.0053437054,0.0015798509,0.006656617,6.943941e-06
0.956074,0.0,5.930662e-06,2.8908253e-06,4.172325e-07,0.0021653473,0.0021519363,4.4703484e-07,0.0028704703,0.0029164255
0.7005435,2.9802322e-08,1.874566e-05,6.493926e-05,2.771616e-06,0.0009109974,0.0007328689,6.28829e-06,0.0008915067,0.26718447
0.99691236,0.0,2.0861626e-07,5.9604645e-07,0.0,0.0010623634,0.0025026798,9.715557e-06,7.903576e-05,6.02901e-05
1.1920929e-07,3.8444996e-06,1.937151e-06,0.0,0.0,0.0,1.4007092e-06,0.0,2.9802322e-07,0.99407965
3.7759542e-05,0.00023937225,0.48408085,2.8848648e-05,1.1920929e-06,0.0013608038,0.043120563,1.835823e-05,0.99813014,3.6656857e-05
0.0029083192,3.5762787e-07,0.982198,1.3947487e-05,3.874302e-07,0.0012482405,0.0013669729,6.854534e-07,0.0005505681,0.0003655851
0.070477694,6.848574e-05,0.00010380149,8.34465e-06,9.089708e-06,0.0074892044,0.48579237,0.00013619661,0.5164663,0.003612548
0.0053507686,1.7881393e-07,0.00010058284,0.0034410357,0.7189546,0.35975617,0.0018274486,2.0235777e-05,0.008431375,4.249811e-05
0.85370946,1.4901161e-07,1.129508e-05,1.0669231e-05,0.0,0.0019471943,0.00075903535,4.056096e-05,0.021385968,0.018904477
0.00048187375,8.940697e-08,2.2649765e-06,0.99976516,3.2782555e-07,0.0002707243,0.0010302961,8.940697e-08,0.0015574992,3.1590462e-06
5.9604645e-08,1.758337e-06,0.015891343,0.00084370375,0.021020412,0.00018787384,0.035784602,5.3465366e-05,0.99979365,1.6212463e-05
0.9989028,0.0,5.9604645e-08,1.1920929e-07,0.0,0.00036630034,0.00071412325,2.9802322e-08,0.00021719933,2.9802322e-06
0.7750396,4.7683716e-07,0.00048601627,0.00010895729,2.3841858e-07,0.003530264,0.0027852654,0.004771769,0.11263576,0.04252574
0.9800222,0.0,7.4505806e-07,4.0233135e-06,1.1920929e-07,0.0012466311,0.0018031597,5.9604645e-08,0.007935643,5.4061413e-05
2.7358532e-05,0.0,1.2516975e-06,2.771616e-06,7.748604e-07,7.390976e-06,0.0015884936,2.9802322e-08,0.99997246,1.7881393e-07
2.6226044e-06,0.9955589,2.7954578e-05,0.0045113564,1.4901161e-06,0.00068449974,0.0021248162,0.0,0.9983913,3.9339066e-06
0.994804,1.1920929e-07,7.3611736e-06,2.9802322e-08,0.0,0.00019744039,0.0009737015,1.4901161e-07,6.54161e-05,0.0025795698
0.09590712,1.6391277e-06,0.9093083,2.8550625e-05,6.854534e-07,0.002273351,0.0029519498,0.00011134148,0.010596156,0.00030776858
1.3411045e-06,9.834766e-07,9.089708e-05,0.99993604,0.005900532,0.004767567,0.001715064,2.9802322e-08,0.018026859,7.4505806e-07
0.98500127,0.0,2.3841858e-07,2.9802322e-08,0.0,0.0002104938,0.00070014596,0.0015019178,6.92606e-05,1.04010105e-05
6.377697e-06,1.7285347e-06,0.9990696,0.0015744865,0.0002925694,0.0011523664,0.0016556382,7.1525574e-07,0.025681227,0.0005367696
0.00048702955,0.0016504228,0.00020194054,0.00014919043,1.8805265e-05,0.0065900385,0.97525144,4.9829483e-05,0.2730439,0.006540954
9.834766e-07,4.196167e-05,0.0015646219,1.1563301e-05,2.115965e-06,0.00017365813,0.004088968,3.5762787e-07,0.038510114,0.9854075
0.9892889,2.9802322e-08,3.5762787e-07,5.9604645e-08,8.940697e-08,0.0019781888,0.013419509,2.95043e-06,0.0007414222,0.00014981627
0.092457175,2.3245811e-06,0.0006945133,2.7120113e-06,4.7683716e-07,0.44092122,0.03569615,8.016825e-06,0.0006200969,2.8073788e-05
7.1525574e-07,0.36744234,0.004180163,0.99851036,1.1503696e-05,0.011629671,0.03420472,8.940697e-08,0.74734056,4.056096e-05
8.374453e-06,0.0005816519,0.0025290847,0.00034064054,2.4735928e-05,0.9999725,0.049298257,5.3465366e-05,0.060938984,0.0003565848
6.4373016e-06,2.9802322e-07,0.70775235,0.00012394786,8.314848e-06,2.5242567e-05,0.00043725967,0.82856387,0.0004529953,0.00047543645
8.5651875e-05,8.940697e-08,0.00016248226,1.579523e-05,5.3942204e-06,0.00038072467,0.0019860268,0.020041257,0.96587,0.002645284
8.72612e-05,0.9980683,0.00076273084,0.0036467314,1.2755394e-05,0.02082187,0.0035154223,8.940697e-08,0.036404133,0.003127426
0.0,1.6480684e-05,0.98795986,0.9999013,0.00022020936,0.0002618134,0.0056263506,0.0,0.9835695,2.9802322e-08
1.4692545e-05,1.1920929e-07,6.881356e-05,2.130866e-05,5.9604645e-08,8.317828e-05,0.0021278262,0.00040656328,0.99590224,0.0012939274
0.0,1.6152859e-05,0.00080516934,0.9998932,0.48532686,0.7133587,0.10634914,1.3709068e-06,0.0014579594,1.4901161e-07
0.95873797,4.172325e-07,0.0004504919,5.662441e-07,7.748604e-07,0.0011499822,0.001649648,0.001196146,0.002789855,0.0049544573
0.99257165,0.0,7.748604e-07,1.6987324e-06,2.682209e-07,0.0008856058,0.0014862716,1.2814999e-06,0.00016209483,4.452467e-05
2.2619963e-05,8.806586e-05,0.3796313,0.0002656877,7.483363e-05,0.99139583,0.014318526,0.023928702,0.0030385256,0.0026812255
0.010899842,0.0,1.9669533e-06,6.854534e-07,0.0,7.265806e-05,0.00069993734,0.99918926,1.2695789e-05,1.7642975e-05
0.0,5.9604645e-08,0.0003978014,8.928776e-05,0.00034701824,1.0,0.0004247725,0.0035454333,0.040763646,6.854534e-07
0.01518476,2.9802322e-07,0.00015950203,3.4719706e-05,1.7881393e-07,0.9964197,0.003390938,7.7188015e-06,0.0046803355,3.85046e-05
8.34465e-07,0.00024971366,0.0055411756,0.0034031272,0.00023710728,0.9999991,0.010600567,0.00020602345,0.1175856,4.130602e-05
3.8921833e-05,6.2584877e-07,0.00642848,7.2419643e-06,0.00022432208,0.00079378486,0.0053763986,0.0006288886,0.18811122,0.6719348
6.854534e-06,7.4505806e-07,0.9998232,1.8656254e-05,7.674098e-05,0.0006188154,0.004585594,0.0001244247,0.0005683601,0.00038194656
2.7120113e-06,2.9802322e-08,1.8179417e-06,0.999995,5.364418e-07,0.0001437068,0.003914565,5.364418e-07,2.1636486e-05,2.9802322e-07
0.55376947,0.0,0.0003181696,1.3232231e-05,0.00023573637,0.003485322,0.0011519492,7.748604e-07,0.0042075515,0.05927849
0.9986789,0.0,0.0,0.0,0.0,0.00018179417,0.00026991963,4.172325e-07,1.66893e-05,7.164478e-05
0.048878223,1.1622906e-06,6.8068504e-05,2.1010637e-05,2.8342009e-05,0.9872545,0.005831778,0.00046744943,0.050670236,0.0019589365
0.00067830086,1.3977289e-05,0.00012457371,1.6331673e-05,2.5331974e-06,0.0058714747,0.5502939,1.770258e-05,0.028195053,0.0067527294
7.0929527e-06,2.5868416e-05,0.9201966,9.071827e-05,0.29674107,0.050951064,0.0006374419,8.273125e-05,0.058660895,0.006058216
0.057651848,0.0,1.2695789e-05,6.854534e-07,4.172325e-07,0.75888455,0.009066939,0.00018769503,0.0035028458,9.1940165e-05
0.9603235,0.0,1.6987324e-06,1.8179417e-06,1.0728836e-06,0.0004246533,0.0007531345,1.1861324e-05,0.001373142,0.0036818087
0.19094855,2.7924776e-05,0.006236553,1.7881393e-07,2.682209e-07,0.00042182207,0.003332585,0.00016254187,0.005707413,0.4735581
0.0011580288,1.0430813e-06,5.2899122e-05,0.00011384487,2.0235777e-05,0.3041881,0.009021372,9.328127e-05,0.33547717,0.0025827885
0.9447812,5.9604645e-08,0.00012803078,4.708767e-06,3.6984682e-05,0.0036604106,0.014604896,5.1617622e-05,0.00069105625,0.002086252
0.030203044,1.937151e-06,4.646182e-05,5.6803226e-05,4.529953e-06,0.6970022,0.007731557,0.0002002418,0.09873116,0.022159427
0.9886764,0.0,1.847744e-06,2.3841858e-07,0.0,0.00011858344,0.0008523166,0.0008711219,2.3812056e-05,1.2725592e-05
0.015514374,4.529953e-06,8.940697e-07,6.058812e-05,0.0,9.8735094e-05,0.0016825795,4.172325e-07,0.99148977,6.312132e-05
3.567338e-05,3.8951635e-05,0.9822407,1.3768673e-05,1.4424324e-05,0.9975577,0.015397638,0.00046172738,0.0027822852,2.193451e-05
0.9730152,3.2782555e-07,4.4822693e-05,5.364418e-07,2.9802322e-07,0.0016787946,0.0045283735,1.4007092e-06,0.009126514,0.0009536743
6.854534e-07,0.0038128495,4.5597553e-05,0.99990106,0.0010933876,0.03144145,0.61245656,8.34465e-07,0.0006619692,3.7133694e-05
0.75021577,0.0,1.6093254e-06,3.2782555e-07,4.7683716e-07,0.003900826,0.0006958842,0.0002758503,0.0005226433,0.047002226
4.7683716e-06,5.662441e-07,1.4305115e-05,0.99999166,1.129508e-05,0.00023296475,0.0016177893,0.0,0.0020057857,3.7044287e-05
0.98385364,2.3841858e-07,5.066395e-07,2.4735928e-06,0.0,0.0014412701,0.0012927353,2.2351742e-06,0.018004447,6.785989e-05
3.835559e-05,1.4007092e-06,3.927946e-05,1.5854836e-05,3.6120415e-05,0.00052019954,0.007124722,1.835823e-05,0.9722637,0.007848442
1.4007092e-06,0.0004028678,0.004238695,0.000109642744,2.989173e-05,0.9999963,0.013774693,0.00014951825,0.012523949,0.00010678172
1.4901161e-07,4.7683716e-07,2.7686357e-05,0.99999624,0.00021088123,0.00021213293,0.013316274,2.8312206e-06,0.00071904063,9.208918e-06
0.9903617,0.0,4.2021275e-06,2.4735928e-06,5.9604645e-08,0.0016614199,0.0026638508,7.1525574e-07,0.0016465485,0.00015825033
3.08156e-05,0.0,6.8843365e-06,1.4901161e-06,1.7881393e-07,6.5237284e-05,0.0031042993,1.1920929e-07,0.99994886,1.2516975e-06
0.020120293,7.4505806e-07,0.9441353,8.46386e-06,5.543232e-06,0.0016689599,0.009810209,4.7534704e-05,0.0015274286,0.00026214123
0.0004015565,0.998506,3.620982e-05,0.00041165948,9.536743e-07,0.0060627162,0.00050759315,2.9802322e-08,0.004873842,9.62019e-05
0.9940109,0.0,4.172325e-07,8.940697e-08,2.9802322e-08,0.000531435,0.0007534623,9.834766e-07,0.0007452667,5.7965517e-05
0.00034478307,0.0,3.1977892e-05,6.854534e-07,0.0,7.623434e-05,0.0037686229,1.9967556e-06,0.9998435,5.364418e-07
0.8853175,0.0,6.7949295e-06,1.7881393e-07,1.6123056e-05,0.0005187392,0.0011810064,2.2351742e-06,0.052920967,0.00050732493
0.0,0.0020262897,0.96149325,0.44056043,0.00010061264,0.007758707,0.33421528,3.33786e-06,0.97279704,9.5665455e-06
0.012636304,0.0,1.1026859e-06,1.1622906e-06,4.7683716e-07,0.00010338426,0.0009061694,6.7055225e-06,0.98837364,7.599592e-06
0.9823313,0.0,2.9802322e-06,1.1920929e-07,3.427267e-06,0.0029439032,0.0021582842,1.1116266e-05,0.0013475418,0.00069227815
0.9829522,0.0,3.5762787e-07,0.0,0.0,6.532669e-05,0.0006223917,0.0020755827,0.00011473894,1.41859055e-05
0.33414203,8.940697e-08,1.3411045e-06,2.0861626e-07,8.940697e-08,0.0031752884,0.59751695,1.9073486e-06,0.00012242794,3.963709e-06
0.92177695,2.9206276e-06,1.3411045e-06,7.1823597e-06,0.0,0.0026603043,0.002598405,3.5762787e-07,0.17758116,0.00071802735
0.6427034,7.56979e-06,0.000710696,2.7954578e-05,2.0563602e-06,0.0015701056,0.0020840466,5.9604645e-07,0.3312964,0.0038577318
6.580353e-05,0.0,4.7683716e-07,0.0,0.0,8.85129e-06,0.0015966892,0.0,0.9996958,4.976988e-06
0.23486733,5.2154064e-06,5.8859587e-05,9.834766e-07,5.543232e-06,0.0014609396,0.37679452,0.003290683,0.0011788309,0.041764915
1.1920929e-06,1.4901161e-07,0.007619381,2.515316e-05,6.0796738e-06,9.047985e-05,0.0047444403,2.360344e-05,0.99995387,0.0001348257
0.0,0.0,3.3676624e-06,0.999995,0.9950103,0.00024947524,0.0005919039,0.0,0.024659902,0.0
0.9644475,0.0,9.208918e-06,1.1920929e-07,2.9802322e-08,0.0012847781,0.0008392334,8.940697e-08,0.00492388,0.00360924
0.4863754,1.7881393e-07,0.008237958,2.8312206e-06,1.5765429e-05,0.0059117675,0.004567355,6.741285e-05,0.18003136,0.00091934204
0.48328793,0.0,6.347895e-05,1.0430813e-05,8.940697e-08,0.0008121729,0.0009739101,0.0005123317,0.18836904,0.0028183758
2.56598e-05,1.6361475e-05,3.874302e-07,5.799532e-05,2.1755695e-06,0.013902396,0.9969697,8.046627e-07,0.008959293,0.0013414025
0.000100553036,0.0,2.9683113e-05,3.963709e-06,4.172325e-07,0.00016075373,0.0030823648,0.9984691,0.0019634366,0.00012332201
2.0861626e-07,2.4735928e-06,9.474158e-05,0.99998146,2.7477741e-05,0.00046092272,0.0061813295,1.3142824e-05,0.00013422966,1.731515e-05
3.6656857e-06,7.95722e-06,2.2739172e-05,0.0007043779,5.543232e-06,0.9601496,0.84643996,2.1457672e-06,0.025567412,0.00074738264
3.7252903e-06,9.9509954e-05,0.029130876,0.0016222596,0.15289044,0.017539918,0.19198006,4.6938658e-05,0.99194694,0.00020086765
3.0070543e-05,4.172325e-07,0.999548,6.300211e-05,4.261732e-06,0.00073954463,0.0016877353,1.1920929e-06,0.06874457,1.0102987e-05
3.993511e-06,0.0,4.091859e-05,1.0728836e-06,0.0,3.4332275e-05,0.0026303828,4.5001507e-06,0.99996555,1.7285347e-05
0.99752176,0.0,4.172325e-07,1.4901161e-07,0.0,0.00046876073,0.0009608269,2.2053719e-06,0.00014826655,1.2010336e-05
0.9224788,2.9802322e-08,2.9802322e-07,8.136034e-06,0.0,0.0014216602,0.01567936,2.2947788e-06,0.0023917258,0.00028285384
1.3023615e-05,0.0,1.1920929e-07,0.9999862,6.645918e-06,0.00025558472,0.00021407008,1.7881393e-07,4.529953e-06,6.2584877e-07
8.6426735e-06,2.9802322e-08,1.9013882e-05,0.9999967,1.6391277e-05,0.00042325258,0.004270613,1.1920929e-07,3.501773e-05,1.4901161e-07
0.0034384131,0.0,4.8309565e-05,1.4305115e-06,1.3411045e-06,0.00012353063,0.0036606193,6.303191e-05,0.9909149,1.6868114e-05
0.9924626,0.0,5.662441e-07,7.033348e-06,8.940697e-08,0.0009548664,0.00087338686,1.4901161e-07,0.00082218647,0.00030753016
0.97219896,1.1920929e-07,4.7773123e-05,6.854534e-07,1.1920929e-07,0.004375905,0.007314712,3.144145e-05,0.0030228198,0.00029793382
0.1555694,1.1920929e-06,2.3841858e-07,2.026558e-06,2.0861626e-07,0.0016377866,0.26798964,1.4901161e-07,0.00044703484,0.00043439865
6.464124e-05,4.208088e-05,0.00040367246,4.607439e-05,0.000106304884,0.0064543486,0.9693829,5.081296e-05,0.00058299303,0.009490877
0.80703634,2.8312206e-06,4.839897e-05,5.3346157e-05,2.2649765e-06,0.044811368,0.003188163,4.23193e-06,0.12182674,0.0012482405
0.060105026,2.9802322e-08,1.0728836e-06,8.940697e-07,8.940697e-08,0.002258867,0.7975292,1.1920929e-07,0.0030621588,9.202957e-05
1.874566e-05,2.9802322e-07,0.00034037232,1.3709068e-06,2.8967857e-05,0.00044322014,0.0062460005,5.1528215e-05,0.7846075,0.09958029
0.721161,0.0,3.695488e-06,8.225441e-06,2.9802322e-08,0.00074365735,0.0013061464,0.0001616776,0.6824157,0.00011104345
5.2541494e-05,2.9802322e-08,1.5795231e-06,0.00018802285,4.4703484e-07,0.00016921759,0.01989919,0.0,0.99984664,3.1292439e-06
4.172325e-07,0.9973796,0.00031331182,0.00079345703,1.1920929e-07,0.00037193298,0.0016508698,0.0,0.9981376,8.106232e-06
0.0033109188,0.0,1.5497208e-06,4.9471855e-06,1.4603138e-06,0.00075137615,0.0042224824,1.4901161e-07,0.9866282,0.000731647
0.00012645125,1.4603138e-06,0.9964825,1.79708e-05,5.364418e-07,0.0012206733,0.002442509,5.9604645e-07,0.2908665,4.1127205e-06
0.00015413761,0.99573195,0.0016324222,0.32016766,2.065301e-05,0.02777949,0.0005573034,1.6093254e-06,0.031109095,0.00040990114
0.21519604,0.0,1.3709068e-06,6.2584877e-07,0.0,0.00023600459,0.001193136,5.9604645e-08,0.9069767,0.00014325976
4.827976e-06,0.9859326,0.00036096573,0.0020274818,1.1920929e-07,0.0026934147,0.009525269,0.0,0.9965594,0.0001372695
3.6388636e-05,0.99592257,0.00044494867,0.03888336,6.106496e-05,0.0041452944,0.012140453,2.9802322e-08,0.73487633,0.0007880032
0.0003604293,0.18941313,0.5341368,0.00025367737,1.3053417e-05,0.008005708,0.06469092,2.1219254e-05,0.0009838045,0.035143405
2.0861626e-07,1.66893e-06,0.0017469525,0.00032293797,6.201863e-05,0.99999976,0.0027028918,0.000111967325,0.11719325,3.4570694e-05
2.771616e-06,0.85037625,0.009139329,0.0003722608,0.0006773174,0.004078716,0.2526398,0.0001899898,0.0005954802,0.002109617
1.49309635e-05,9.000301e-06,0.9854667,2.7418137e-05,7.1287155e-05,0.00063988566,0.0020276904,2.2649765e-06,0.9317548,6.1392784e-06
0.90785015,2.0861626e-07,0.0001732409,0.0,8.940697e-08,0.00021672249,0.00060901046,5.120039e-05,4.4852495e-05,0.31777555
0.0,6.1690807e-06,0.0017784834,0.86758614,0.06581515,0.99999654,0.021207094,2.8073788e-05,0.041431934,1.2814999e-05
0.8309637,0.0,7.4505806e-06,5.364418e-07,0.00014731288,0.00031909347,0.0012715757,2.682209e-07,0.0028942823,0.00022289157
8.940697e-08,9.587407e-05,6.446242e-05,0.99999666,0.00016450882,0.024579853,0.20282063,5.9604645e-08,0.028893292,1.6093254e-06
0.076289445,0.0,7.95722e-06,1.4483929e-05,8.940697e-08,0.0006632507,0.0013246536,0.9746475,5.5998564e-05,0.00039041042
0.94870365,5.9604645e-08,8.094311e-05,3.3676624e-06,1.4901161e-07,0.000589937,0.0004415214,0.018452913,0.0010800362,0.0037313104
0.8679807,1.2218952e-06,0.0104551315,3.3080578e-06,2.503395e-06,0.0053444505,0.0114272535,0.0056376755,0.00046554208,0.0019146204
0.9918246,0.0,6.2584877e-07,3.874302e-07,5.9604645e-08,0.0006609857,0.0008815527,8.940697e-08,0.0015001297,0.00027820468
1.1920929e-07,3.8444996e-06,1.937151e-06,0.0,0.0,0.0,1.4007092e-06,0.0,2.9802322e-07,0.99407965
0.1404148,8.016825e-06,1.2606382e-05,0.00032055378,3.6358833e-06,0.0056267083,0.2417872,0.011217296,0.004064858,0.0019999146
0.00026461482,0.0,4.440546e-06,5.3584576e-05,6.1690807e-06,0.0002180934,0.0054065883,9.536743e-07,0.9995917,3.2186508e-06
5.9604645e-08,1.3649464e-05,0.0010632873,0.9999083,0.025376827,0.00035241246,0.019525677,1.3709068e-06,0.0037297904,0.0002655387
0.007876158,0.0,0.00034984946,9.23872e-07,0.003498286,0.0015701354,0.004777938,3.0219555e-05,0.12724388,0.3363902
5.9604645e-08,0.0006661117,0.00076556206,0.9993024,0.0027976036,0.002106756,0.013125569,3.6358833e-06,0.16276208,4.506111e-05
7.1525574e-06,0.0,1.4454126e-05,1.0192394e-05,2.8312206e-06,8.7052584e-05,0.006067872,8.940697e-08,0.9999734,6.854534e-07
0.99636817,0.0,1.1920929e-07,0.0,0.0,0.0006606579,0.0011359155,5.9604645e-08,0.0010983944,4.4703484e-05
0.5059122,1.6093254e-06,0.0012078881,0.00058174133,3.2484531e-06,0.02166015,0.025216192,0.000259161,0.00014063716,0.00021517277
0.9950418,2.9802322e-08,2.592802e-06,2.3841858e-07,5.9604645e-08,0.00092715025,0.00086963177,4.5001507e-05,7.224083e-05,0.0028330386
0.0,9.587407e-05,0.0023159683,0.9987502,0.7343403,0.99966955,0.17813495,2.861023e-06,0.030769229,3.874302e-07
0.1451881,1.4007092e-06,0.06671244,3.874302e-07,2.9802322e-08,0.0008556843,0.0032806396,0.005820602,0.00081935525,0.0067000687
6.7055225e-06,0.0,1.1026859e-06,0.999998,7.778406e-06,0.00013402104,0.00043863058,0.0,2.592802e-06,3.5762787e-07
0.0444898,1.9609928e-05,1.7881393e-07,8.34465e-07,2.9802322e-08,0.0014443398,0.9657676,1.2516975e-06,0.00038293004,0.00037622452
0.15738544,0.0,1.6093254e-06,1.4901161e-07,5.9604645e-08,0.0003874898,0.0014855266,0.9567375,2.9414892e-05,9.6440315e-05
6.854534e-07,8.940697e-08,5.722046e-06,0.9999994,0.0029223263,0.00043010712,0.0016738176,2.9802322e-08,0.004279375,8.940697e-08
8.7708235e-05,0.6025735,0.0020216107,0.0005133748,5.364418e-07,0.016116858,0.07648826,5.662441e-07,0.827082,0.0053374767
1.1920929e-06,0.0,0.0001501143,0.00013071299,0.0,1.7881393e-06,1.4990568e-05,2.321601e-05,1.22487545e-05,0.9999956
4.1127205e-06,1.9967556e-06,0.0002257824,1.31726265e-05,2.0861626e-07,5.0395727e-05,0.0013861656,6.556511e-07,0.10551959,0.98609483
0.8175376,0.0,4.7683716e-07,3.5762787e-07,2.9802322e-08,0.00024792552,0.0015656054,2.3841858e-07,0.41373667,7.6293945e-06
1.2725592e-05,6.556511e-07,0.00045982003,1.642108e-05,0.00017639995,0.9999988,0.005076796,0.00011050701,0.10478914,6.490946e-05
1.4901161e-07,3.5762787e-07,4.1395426e-05,0.99997544,0.9928006,0.00082194805,0.002881527,3.5762787e-07,0.004563302,1.1920929e-07
0.12086892,0.0,9.834766e-07,4.5597553e-06,0.0,5.671382e-05,0.0002745092,0.9637462,2.488494e-05,0.00026473403
0.0033335686,2.9802322e-08,4.5895576e-06,3.5762787e-07,2.9802322e-08,0.0009191036,0.006918043,3.5762787e-07,0.99528766,0.00013440847
0.99497366,0.0,7.748604e-07,1.1920929e-06,0.0,0.0012313128,0.0023926795,1.1712313e-05,3.093481e-05,0.00030899048
0.19381776,0.0,1.2516975e-06,0.0007493198,1.013279e-06,0.00026792288,0.00044968724,0.29156318,0.0022111237,0.0011358857
3.758073e-05,2.3841858e-07,0.9998202,0.00010025501,0.0012011826,0.0014834106,0.0050976574,1.9669533e-06,0.0034392774,1.2934208e-05
0.0001436472,0.0,1.0818243e-05,8.940697e-07,5.9604645e-08,0.000102609396,0.0014472306,1.5199184e-06,0.9999113,9.23872e-07
5.7786703e-05,0.00020417571,5.364418e-06,8.195639e-05,3.2484531e-06,0.013053745,0.98147774,3.5762787e-07,0.15983233,0.0036278367
0.008920312,2.9802322e-08,4.1246414e-05,9.208918e-06,0.0,0.0003594756,0.0016445816,7.82609e-05,0.9696898,0.002674073
3.1888485e-06,7.754564e-05,0.0028282106,0.00031203032,8.505583e-05,0.99999917,0.006722003,0.0022355616,0.03120485,0.00024074316
0.96419924,2.9802322e-08,1.8119812e-05,1.1622906e-06,3.5762787e-07,0.0013118684,0.0023694038,0.0033462942,0.0037045479,0.0009663701
0.9611783,1.7881393e-07,2.0563602e-05,4.61936e-06,1.1920929e-07,0.0016439855,0.013504118,0.00019773841,0.0007189214,0.00026637316
0.0029487908,9.852648e-05,0.0012122989,1.5676022e-05,4.2021275e-06,0.0003491342,0.0026618242,1.1920929e-07,0.9922606,0.0069506466
0.0007619858,2.592802e-06,8.940697e-08,5.9604645e-08,0.0,0.00047793984,0.9990473,1.4901161e-07,2.7745962e-05,3.105402e-05
0.9962551,0.0,4.5597553e-06,0.0,8.940697e-08,0.00029090047,0.0008969903,1.3411045e-06,0.00018933415,0.00014826655
2.1785498e-05,1.4901161e-07,9.298325e-06,0.9999874,1.1920929e-07,0.0004041195,0.0043056607,5.364418e-07,7.164478e-05,9.834766e-07
0.001326412,0.0,1.1920929e-07,3.066659e-05,2.9802322e-08,0.0001270771,0.0001372993,0.9995711,6.455183e-05,9.447336e-06
0.00024482608,0.0,1.4305115e-05,1.1622906e-06,1.1920929e-07,0.00012752414,0.0020095408,0.0,0.9996504,2.5182962e-05
0.36839914,1.1354685e-05,8.401275e-05,7.4505806e-07,5.9604645e-08,0.0011889935,0.008839846,4.7683716e-07,0.6720736,0.00070756674
1.5735626e-05,0.0,1.4305115e-06,6.1690807e-06,8.940697e-08,5.272031e-05,0.00049191713,0.9999067,7.70092e-05,0.000102728605
8.4489584e-05,0.00010639429,4.2885542e-05,2.6226044e-06,4.8577785e-06,0.004107356,0.97167665,7.6293945e-06,0.003951907,0.014225304
0.0016753376,0.0,0.0013185441,3.33786e-05,1.2516975e-06,0.0005556047,0.004546076,0.0002156496,0.99449754,0.00023075938
4.7683716e-07,0.0,0.0,4.172325e-07,2.0861626e-07,2.9802322e-08,8.821487e-06,0.0,4.6491623e-06,0.99996626
1.9967556e-06,3.835559e-05,0.00020414591,0.0009791553,2.1189451e-05,0.0031300783,0.039420873,0.0,0.9314461,0.008485794
0.0032997727,0.0,1.8119812e-05,1.9520521e-05,4.172325e-07,0.00024279952,0.0030458272,4.9710274e-05,0.99556077,0.00018817186
3.257394e-05,1.4066696e-05,0.00020775199,0.00010308623,6.28531e-05,0.9999808,0.0070194006,0.00029715896,0.0088302195,0.00030976534
0.99864924,0.0,5.364418e-07,2.9802322e-08,0.0,0.00053343177,0.0012916923,7.4505806e-07,4.416704e-05,4.968047e-05
0.9948206,0.0,0.0,2.5629997e-06,0.0,0.00086310506,0.0009673536,2.3841858e-07,0.0018914342,4.9561262e-05
0.994288,2.9802322e-08,4.172325e-07,0.0,0.0,0.00014361739,0.00054323673,6.6280365e-05,0.0009811223,9.0152025e-05
0.9896803,0.0,3.5971403e-05,1.4901161e-06,5.9604645e-08,0.0018728375,0.00096550584,0.00017902255,0.0001924336,0.00018399954
3.5971403e-05,0.0,9.834766e-07,5.90086e-06,6.854534e-07,3.4689903e-05,0.0022819936,2.9802322e-08,0.9999308,4.172325e-07
0.99551624,4.172325e-07,1.0997057e-05,8.940697e-08,8.940697e-08,0.00072455406,0.0019378662,1.3411045e-06,0.000103235245,0.0011466444
0.00047284365,1.4007092e-06,0.0002413392,0.00018817186,0.00029221177,0.999632,0.010951132,4.7683716e-06,0.009115607,3.3080578e-05
0.4388949,3.5762787e-07,1.0222197e-05,6.0081482e-05,0.0,0.002902627,0.0014065802,1.7881393e-07,0.7711314,0.00012114644
0.31583858,0.0,3.427267e-06,3.9339066e-06,0.0,0.00031971931,0.00079759955,0.8954283,2.1457672e-05,0.0019035339
0.0046845675,0.96853256,0.004349768,0.00013497472,2.3841858e-07,0.0050486624,0.0014412105,6.556511e-07,0.008066803,0.008142918
4.9114227e-05,0.9990541,0.0069509447,0.0117197335,8.252263e-05,0.02516982,0.0011626482,5.9872866e-05,0.0854221,0.00307554
0.9983867,0.0,1.1920929e-07,0.0,0.0,0.00024685264,0.00044983625,2.413988e-06,1.1742115e-05,0.0001526177
0.0001885891,1.14142895e-05,0.0012535751,0.0015401244,0.0066426396,0.998755,0.014671922,1.1444092e-05,0.08225334,6.452203e-05
0.99914825,0.0,5.9604645e-08,0.0,0.0,8.4251165e-05,0.00038093328,0.0,9.614229e-05,9.128451e-05
5.9604645e-07,8.940697e-08,3.2901764e-05,0.9999731,0.3347774,0.0014632642,0.003337115,0.0,0.20849511,8.940697e-08
0.00021031499,8.940697e-08,0.00015100837,6.8604946e-05,7.5399876e-06,0.00023007393,0.009883672,4.529953e-06,0.9997343,4.7385693e-06
0.9725027,0.0,4.7683716e-07,0.0,0.0,6.785989e-05,0.00080883503,0.0060812235,6.964803e-05,0.0028769374
0.0041077733,5.9604645e-08,2.1010637e-05,0.0004017055,9.119511e-06,0.0008480251,0.0032546222,8.404255e-06,0.97556424,0.0003298819
0.9970636,0.0,1.1920929e-06,1.7881393e-07,2.9802322e-08,0.001450479,0.0012251735,5.364418e-07,8.234382e-05,0.0002835393
0.0006161034,1.1920929e-07,0.013807893,8.189678e-05,0.0001809597,0.00022751093,0.002551347,7.6293945e-06,0.99850917,6.67572e-05
1.6570091e-05,0.0,2.8312206e-06,0.99988437,7.748604e-07,0.00042146444,0.0016907752,0.0,0.19644189,2.4706125e-05
0.9747478,2.5331974e-06,6.020069e-06,3.2782555e-07,2.3841858e-07,0.0012084842,0.0051901937,1.4305115e-06,0.0005725622,0.0068328083
0.026776105,0.0,1.1920929e-06,2.8312206e-06,3.5762787e-07,0.00022676587,0.001873374,1.7881393e-07,0.9904562,4.0233135e-05
4.6789646e-06,6.6161156e-06,0.000623852,9.2715025e-05,9.536743e-07,0.9999993,0.017401725,0.000107973814,0.005599797,1.1622906e-06
0.87987715,0.0,7.838011e-06,5.1021576e-05,1.2516975e-06,0.0009096861,0.0010299385,2.0861626e-07,0.080866635,6.151199e-05
0.0020257235,2.682209e-06,0.0002491176,8.672476e-06,1.1920929e-07,0.0006028414,0.007094592,1.1920929e-07,0.9976294,0.00016644597
6.8843365e-06,0.0,3.6358833e-06,0.9998926,1.1920929e-07,0.0002682507,0.001639396,7.909536e-05,9.498e-05,7.1525574e-07
0.8378272,0.0,3.5762787e-07,8.34465e-07,3.5762787e-07,0.0007112026,0.0005341768,0.0027974546,0.008029044,0.000107795
1.1920929e-07,2.05338e-05,0.00015512109,0.99995613,0.00034040213,0.00056636333,0.15042856,1.6987324e-06,0.00012248755,1.4334917e-05
0.0,5.9604645e-08,8.940697e-07,0.99999964,0.00014594197,0.00020325184,0.002895534,0.0,0.011855125,8.940697e-08
0.00018155575,1.9669533e-06,6.109476e-06,6.7949295e-06,1.1920929e-07,0.0025680661,0.913399,0.16840369,0.00050985813,5.77569e-05
5.3703785e-05,2.0861626e-07,9.3489885e-05,4.887581e-06,3.1888485e-06,0.00012737513,0.00091308355,1.2785196e-05,0.07161611,0.9713258
8.940697e-07,0.0,1.9133091e-05,0.9999827,0.0067822933,0.00029745698,0.0016162097,0.0,0.0041677654,2.3543835e-06
0.12915269,1.9669533e-06,4.2915344e-06,0.0006683171,6.556511e-07,0.0016937554,0.0019526184,5.9604645e-07,0.9391439,0.00023010373
1.1920929e-07,0.9994601,4.8965216e-05,0.7158742,1.1622906e-06,0.002915144,0.0002374947,0.0,0.993755,2.3245811e-06
9.834766e-07,2.0861626e-07,2.5331974e-06,0.99999726,0.00014129281,0.00060901046,0.0011519194,5.9604645e-08,2.348423e-05,4.7683716e-07
0.0049500167,5.9604645e-08,3.5196543e-05,4.261732e-06,1.7881393e-07,0.00019732118,0.0004735887,1.4901161e-07,0.3430159,0.73593223
0.0,5.9604645e-08,1.7225742e-05,0.9999984,0.0012509525,0.00010091066,0.00097313523,1.1473894e-05,6.714463e-05,2.8908253e-06
0.00014221668,2.1457672e-06,1.1026859e-06,1.7881393e-07,6.854534e-07,0.0029281974,0.88370526,1.1920929e-07,0.7751449,0.0047982335
0.00045832992,2.9802322e-07,0.99423194,8.6039305e-05,0.001182884,0.0012077391,0.005480826,9.23872e-07,0.019384444,0.00021845102
0.9892948,0.0,3.5762787e-07,1.1920929e-07,0.0,0.0008865595,0.0007737875,0.00023669004,0.00015774369,7.608533e-05
0.95809305,1.1920929e-07,2.592802e-06,5.8710575e-06,1.1920929e-07,0.00091436505,0.001172483,4.8577785e-06,0.13770336,0.00011444092
0.0007456541,3.2186508e-06,0.0019218326,0.00042712688,1.13248825e-05,0.99603224,0.003598541,0.006703794,0.0008865297,0.0001462698
5.9604645e-08,1.5676022e-05,6.0796738e-06,5.9604645e-08,0.0,8.940697e-08,1.3113022e-06,2.9802322e-08,5.364418e-07,0.9985747
0.9981641,0.0,2.3841858e-07,0.0,0.0,0.00037366152,0.0010011494,1.3411045e-06,0.00018620491,5.2154064e-06
3.2693148e-05,0.0,5.662441e-07,7.4505806e-06,0.0,0.0004402101,0.0035024881,2.9802322e-08,0.99989885,2.9802322e-07
0.94752693,0.0,7.2449446e-05,1.4960766e-05,5.0842762e-05,0.0031622648,0.001488179,4.082918e-06,0.0008237064,0.0018774271
0.98262846,0.0,5.662441e-07,5.9604645e-07,0.0,0.00047138333,0.0008238852,4.172325e-07,0.02184546,4.1097403e-05
0.0003376603,0.00040614605,5.662441e-07,5.2154064e-06,6.2584877e-07,0.0020421743,0.99795485,0.0,0.028963655,0.0007722974
0.30490202,1.7881393e-07,0.6939417,7.748604e-07,8.195639e-06,0.0021711886,0.015721828,0.00034084916,0.0003799498,0.00028324127
0.9895476,0.0,1.3023615e-05,5.9604645e-08,2.3841858e-07,0.00020119548,0.00089907646,0.00014698505,7.2836876e-05,0.00043347478
0.00010564923,1.1920929e-07,0.0010089874,2.643466e-05,0.021107107,0.0016821921,0.0053447783,0.0006739497,0.0008441508,0.6289012
2.4318695e-05,0.93177843,0.00033187866,0.0015263557,1.9282103e-05,0.014171958,0.023347765,0.0,0.23895064,0.063396186
0.9754962,3.5762787e-07,6.508827e-05,1.1920929e-07,2.3841858e-07,0.00080156326,0.0016227365,3.3974648e-06,0.0005031824,0.03058669
1.5795231e-06,2.771616e-06,6.711483e-05,0.9999246,0.0060450137,0.000333488,0.0057335496,5.9604645e-08,0.65305835,3.2782555e-07
0.021728516,0.0,0.8770748,1.4901161e-07,0.00031715631,0.0014284849,0.0029825568,0.00013715029,0.015190244,6.696582e-05
0.016230345,0.0,6.467104e-06,1.6093254e-06,8.940697e-08,0.0004374683,0.0011254549,3.2484531e-06,0.97026765,0.00089660287
0.0,0.0010350347,0.87441266,0.9939071,6.1690807e-06,0.00015223026,0.031339616,0.0,0.9995578,0.0
0.81701267,2.9802322e-08,0.00019785762,5.1259995e-05,7.1525574e-07,0.00064715743,0.0007200241,0.25812265,0.00018030405,0.009539664
1.6093254e-05,1.847744e-06,0.95656776,1.1354685e-05,2.9206276e-05,0.00040957332,0.022620976,8.583069e-06,0.99374557,1.5497208e-05
0.97704935,0.0,2.8908253e-06,2.0861626e-07,1.7881393e-06,0.0007136166,0.001626879,5.364418e-07,0.0019100606,0.00023332238
0.0,9.766221e-05,0.0001014173,0.999859,0.00010699034,0.0010931194,0.029919267,8.940697e-06,0.9853097,0.0
9.179115e-06,2.9802322e-08,1.5497208e-06,0.9999975,2.0861626e-07,0.00023889542,0.0012215376,9.834766e-07,1.6987324e-05,2.682209e-07
6.5773726e-05,0.0005134046,0.00077813864,2.1636486e-05,6.556511e-07,0.00016182661,0.047497094,8.940697e-08,0.9988089,6.702542e-05
8.940697e-08,0.9857192,0.003313899,0.9992751,0.08198205,0.3280129,0.003671348,1.7881393e-07,0.0051739514,1.1920929e-06
0.9027908,0.0,5.3048134e-06,3.182888e-05,6.854534e-07,0.006394893,0.0012111962,0.0012735426,0.0009901822,0.008662552
1.2397766e-05,0.97263813,0.002372235,0.0019513965,1.7881393e-06,0.004680842,0.030337065,1.1920929e-07,0.8861728,0.0047312975
0.99874854,0.0,8.940697e-08,5.9604645e-08,0.0,0.00051862,0.00081816316,8.940697e-08,6.5505505e-05,9.268522e-06
0.0002937317,0.0,0.00012993813,8.106232e-06,1.3113022e-06,0.0001232028,0.0030877888,4.211068e-05,0.9995135,2.115965e-06
0.000102996826,7.542968e-05,0.0075031817,4.1872263e-05,5.066395e-07,0.00026404858,0.0057962537,4.529953e-06,0.9991535,0.00049224496
3.4570694e-06,0.99191743,0.00058567524,0.91969883,0.00070631504,0.029666513,0.001495719,0.0,0.3134195,0.00013568997
0.76078975,0.0,9.23872e-07,8.255243e-06,1.1920929e-07,0.0011963248,0.00088885427,8.9645386e-05,0.17800125,0.00010329485
1.1920929e-07,6.824732e-06,0.0012351274,0.054819345,0.0017605126,0.9999999,0.008369505,0.00018247962,0.030398577,4.23193e-06
0.95184696,0.0,1.4007092e-06,1.4901161e-07,1.4901161e-07,0.00033968687,0.00033384562,0.0038460195,5.8710575e-05,0.0049532056
3.6656857e-06,0.0,1.3321638e-05,1.2695789e-05,1.1920929e-07,0.00014105439,0.005885929,0.03413284,0.99968255,4.5597553e-06
5.1677227e-05,0.9657737,0.007796228,0.012156814,5.6922436e-06,0.006062478,0.022503823,3.5762787e-07,0.97250915,0.0013284385
0.9904752,1.1920929e-07,2.9087067e-05,5.9604645e-08,0.0,0.0005209446,0.001052171,3.0398369e-06,8.961558e-05,0.008004099
0.00028169155,0.0018144846,0.0007122457,0.000454098,8.314848e-06,0.95578897,0.12848055,9.417534e-06,0.25861496,0.0017417073
1.475215e-05,0.0,5.275011e-05,3.7252903e-06,0.0,7.471442e-05,0.0039984584,2.9802322e-07,0.99997234,1.7881393e-06
6.392598e-05,0.9586664,0.0025245845,0.519335,0.0002693236,0.017516524,0.0017932653,6.377697e-06,0.7234701,0.0014884472
3.427267e-06,0.00013893843,0.00027653575,0.06955522,0.002727002,0.99760026,0.04651469,0.0004130602,0.01166597,0.0016084611
1.1712313e-05,5.662441e-07,7.098913e-05,4.5001507e-06,7.122755e-06,6.580353e-05,0.0012041628,0.005149722,0.011221439,0.94947237
0.005731821,3.4064054e-05,0.00035476685,0.91500235,1.5169382e-05,0.0016990602,0.0034408867,9.685755e-06,0.6986849,0.0007354915
3.5762787e-05,0.0,2.9802322e-05,3.33786e-06,8.940697e-08,0.00015640259,0.0034888089,1.7881393e-06,0.9999169,1.92523e-05
3.7550926e-06,0.0,0.00017890334,1.2755394e-05,1.937151e-06,4.285574e-05,0.0050417185,2.9802322e-05,0.9999474,7.8082085e-06
3.1292439e-06,2.9802322e-08,2.1368265e-05,0.9999963,1.1920929e-07,0.000541836,0.008825034,2.3841858e-07,0.0015275478,3.5762787e-07
8.112192e-05,1.1920929e-06,0.005049795,3.7908554e-05,0.0003414452,0.9998662,0.0043605864,0.00031057,0.101918966,0.0010634065
0.00014314055,6.556511e-06,0.9930447,1.7553568e-05,8.195639e-06,0.0033314526,0.0049674213,7.748604e-07,0.31986755,3.3527613e-05
0.8054918,5.9604645e-08,1.0311604e-05,1.0430813e-06,8.6426735e-07,0.00066649914,0.0010878742,0.00043946505,0.015465766,0.048398823
0.00012889504,0.00020393729,1.9967556e-06,2.9802322e-07,1.1920929e-07,0.012493163,0.9693538,1.1622906e-06,0.00053563714,0.0012586117
0.99715376,0.0,2.3841858e-07,0.0,0.0,0.0004975796,0.00080886483,2.9802322e-07,0.00028789043,0.00012552738
3.7550926e-06,0.0,5.066395e-07,0.999991,8.940697e-08,0.00091692805,0.0041671693,2.9802322e-08,0.0030406415,0.0
0.0103854835,2.6226044e-06,0.0002900064,3.054738e-05,1.7642975e-05,0.0025433302,0.22442034,8.440018e-05,0.009146571,0.4199479
5.6266785e-05,0.0,5.543232e-06,1.296401e-05,0.0,0.000108897686,0.0041252077,4.172325e-07,0.9999605,4.172325e-07
0.014577746,1.7881393e-07,2.3245811e-06,3.4570694e-06,8.940697e-08,0.00054234266,0.0020349324,2.9802322e-08,0.9224296,0.035354108
5.9604645e-08,0.03397131,0.42445326,0.99178755,0.0016406476,0.0009755492,0.1194658,1.7881393e-07,0.99018526,2.771616e-06
0.99708176,0.0,2.3841858e-07,0.0,0.0,0.00041508675,0.0013388693,2.4437904e-06,5.492568e-05,7.06017e-05
0.97333133,2.9802322e-07,1.2457371e-05,3.5762787e-07,2.9802322e-08,0.002675593,0.011131287,4.3213367e-06,0.0016117394,0.0028519034
0.95792687,0.0,9.23872e-07,9.596348e-06,0.0,0.003743112,0.002551496,1.4603138e-06,0.0068061054,0.00029471517
0.0032214522,0.0,5.364418e-06,1.1026859e-06,1.4722347e-05,0.00014102459,0.0054724514,0.0,0.9977268,2.0593405e-05
0.61367667,8.940697e-08,1.385808e-05,4.529953e-06,2.5331974e-06,0.0009203553,0.0049408674,1.3113022e-06,0.6469292,0.00034424663
0.00033783913,0.0,7.212162e-06,8.910894e-06,5.9604645e-08,0.000101178885,0.0017871559,0.99807787,0.000354141,0.0003888905
0.996835,0.0,9.23872e-07,1.5199184e-06,2.9802322e-08,0.0010682642,0.0010343492,9.23872e-07,0.00014153123,0.000121861696
1.1622906e-06,0.00029566884,0.96820414,0.21842226,0.0056443214,0.99462545,0.025556475,0.00012856722,0.26582652,6.425381e-05
0.39174157,0.0,3.874302e-07,1.6093254e-06,1.7881393e-07,9.647012e-05,0.0006868243,1.66893e-06,0.57784235,0.00020542741
0.7523114,2.771616e-06,0.0061277747,2.4467707e-05,8.249283e-05,0.0007764697,0.0042029917,1.2308359e-05,0.029332876,0.0018289089
0.003045559,2.9802322e-08,0.0009406805,1.31726265e-05,0.0026314557,0.0007609129,0.004062116,1.937151e-06,0.97800434,0.00051665306
0.00013765693,2.9802322e-07,1.8119812e-05,0.0001243949,2.3841858e-07,0.00027620792,0.005283445,4.142523e-06,0.99956846,8.890033e-05
0.0031288564,2.5331974e-06,2.7805567e-05,0.0005554259,0.0021556318,0.0030750334,0.72586226,1.9729137e-05,0.000631392,0.00012761354
0.015662253,2.9802322e-08,1.5199184e-05,1.4901161e-07,5.9604645e-08,0.00075760484,0.0040339828,3.2782555e-07,0.9953272,5.608797e-05
0.9809493,0.0,5.5730343e-06,2.0474195e-05,1.7881393e-07,0.0007785857,0.00053074956,4.2021275e-06,0.00012394786,0.002075076
0.9860404,0.0,3.6358833e-06,5.364418e-07,3.5762787e-07,0.0011441708,0.0012203753,9.140372e-05,0.00014176965,0.0073316395
0.0006289482,0.0,1.4901161e-07,5.066395e-07,7.748604e-07,0.00062316656,0.0056174695,0.9975072,7.173419e-05,0.00043094158
0.00025326014,3.7550926e-06,1.5169382e-05,0.00045645237,1.3530254e-05,0.9995303,0.009308219,7.5280666e-05,0.000135988,0.00010809302
0.00067433715,1.013279e-06,0.00029748678,1.8119812e-05,8.940697e-07,0.0008265376,0.024522245,0.00070396066,0.9968214,4.1484833e-05
0.0038160086,8.6426735e-07,0.00015547872,7.5399876e-06,6.458163e-05,0.00025099516,0.0041633546,1.0430813e-06,0.99428797,0.0004518032
5.662441e-07,2.3424625e-05,0.9600071,1.9907951e-05,6.1690807e-06,0.0008724034,0.016868114,2.0861626e-07,0.99726546,2.2649765e-06
0.0,6.720424e-05,7.688999e-06,0.9982973,4.798174e-06,0.005337149,0.2535782,2.9802322e-08,0.9257703,9.298325e-06
1.7285347e-06,0.0,0.002532661,6.660819e-05,0.00028648973,6.0081482e-05,0.0006094277,1.4901161e-07,1.7553568e-05,0.99927
0.09331608,5.9604645e-08,0.0058756173,1.013279e-05,0.0010141432,0.00071150064,0.0058331788,9.357929e-06,0.8090129,0.0007956028
0.043013245,8.940697e-07,0.0014600158,0.000117093325,5.64456e-05,0.0026435256,0.019614965,0.00029349327,0.04238218,0.022642672
0.9942823,0.0,3.427267e-06,3.874302e-07,2.9802322e-07,0.00086069107,0.0015346408,7.0512295e-05,8.8721514e-05,0.00019183755
0.9681228,0.0,2.771616e-06,4.7683716e-07,2.0861626e-07,0.00030052662,0.0011723936,0.00019061565,0.00057819486,0.002579689
0.00019466877,0.49406746,0.011885196,0.0005687773,0.00019016862,0.040345073,0.089466125,6.93202e-05,0.11556959,0.26007628
9.009242e-05,2.9802322e-07,0.00022533536,6.276369e-05,2.1368265e-05,0.0002027154,0.0027428865,6.943941e-06,0.29382175,0.73376393
5.9604645e-08,4.172325e-07,0.999696,0.004186064,0.047892362,0.00014716387,0.0024203062,2.0861626e-07,0.9923297,2.9802322e-07
0.8847861,8.6426735e-07,0.102410555,2.861023e-06,5.662441e-07,0.0005927682,0.0030902326,0.00090429187,0.0007612705,0.0007262826
2.4437904e-06,0.0019988418,0.5710328,0.99854875,7.724762e-05,0.00082975626,0.010716528,1.4901161e-07,0.3703856,0.0010241866
8.252263e-05,0.9943238,0.0031884015,0.0053097606,1.013279e-06,0.022567928,0.005696565,1.66893e-06,0.15601543,0.002916187
7.072091e-05,2.9802322e-08,3.6358833e-06,0.00016260147,2.9802322e-07,0.000885576,0.010986745,5.364418e-07,0.9997107,2.938509e-05
9.23872e-07,2.798438e-05,0.9978004,0.001845181,2.3543835e-06,0.11223075,0.0012690425,1.1920929e-07,0.11094487,1.4007092e-06
0.7452694,0.0,1.4305115e-06,3.2484531e-06,0.0,0.0015890896,0.0006634891,6.568432e-05,0.41571647,6.9350004e-05
0.5876058,0.0,2.2023916e-05,1.6391277e-06,6.6161156e-06,0.00036609173,0.0005977154,0.16104585,0.0066946745,0.001080066
0.9865974,0.0,2.0861626e-07,0.0,0.0,1.1384487e-05,0.0009089112,0.0012209117,1.1622906e-06,3.695488e-06
1.7881393e-07,7.4505806e-07,0.0010872781,1.5676022e-05,6.556511e-06,0.9999969,0.0022333562,3.3944845e-05,0.92753285,1.4692545e-05
0.42739442,8.940697e-08,3.0994415e-06,3.6239624e-05,2.3841858e-07,0.0010601878,0.0020802617,9.924173e-06,0.73536015,4.9352646e-05
0.0060518384,0.0,1.8268824e-05,4.4435263e-05,6.556511e-07,0.0005200803,0.00060367584,0.0005066693,0.9681652,0.0013220012
0.02721709,0.0,2.041459e-05,1.4901161e-07,1.9073486e-06,0.0016889274,0.005440414,3.695488e-06,0.93445027,0.0008560419
2.9802322e-08,2.7418137e-06,0.0018230975,9.2715025e-05,7.95722e-05,0.99999976,0.0035110712,1.3411045e-05,0.77582276,1.0281801e-05
1.1026859e-06,0.003373146,0.00510633,0.04164213,0.00037816167,0.33103907,0.7183552,2.861023e-05,0.001735717,0.0042164624
0.5860365,3.0100346e-06,0.00011715293,1.4722347e-05,2.682209e-07,0.001037389,0.000823766,0.00086680055,0.0006198585,0.6803075
9.417534e-06,0.0,1.257658e-05,0.0005465746,2.9325485e-05,0.0009776056,0.0011622906,0.9978949,0.00025254488,0.005062014
9.23872e-07,0.0,1.6540289e-05,0.0022606552,0.99726015,7.817149e-05,0.005610466,3.0249357e-05,0.03612253,0.00012943149
4.7683716e-07,0.00022032857,0.003330052,1.9043684e-05,0.0010347068,0.98123705,0.17479011,1.1831522e-05,0.16537893,0.011197418
0.98748386,0.0,1.2516975e-06,1.1622906e-06,5.9604645e-08,0.002155751,0.0012639761,5.364418e-07,0.0032867491,5.7816505e-05
5.066395e-07,0.0,4.7683716e-07,0.99999845,4.172325e-07,0.00010573864,0.0007917583,0.0,0.013179779,8.940697e-08
0.00045681,5.6028366e-06,0.03147921,0.00021225214,0.035554767,0.0010083616,0.00778839,4.273653e-05,0.94519377,0.007889003
0.0015886724,3.0398369e-06,0.9917404,5.6028366e-06,0.0011104643,0.003064841,0.047637135,0.0015339255,0.03161651,0.001224935
0.0019719899,2.1219254e-05,1.2516975e-06,5.364418e-07,5.9604645e-08,0.00096443295,0.99433196,2.592802e-06,0.0028903484,0.0003722608
0.1835545,1.1622906e-06,6.502867e-05,3.1769276e-05,5.364418e-07,0.0023196936,0.009391993,4.172325e-07,0.71521884,0.0005364716
1.0371208e-05,0.0002683699,0.004943669,0.002657026,0.0005621016,0.94682646,0.11367068,0.00080001354,0.0163216,0.023386478
2.4080276e-05,1.2785196e-05,1.0430813e-06,1.591444e-05,4.261732e-06,0.52767164,0.86046004,8.6426735e-07,0.0058556795,0.0010537803
0.96855646,2.9802322e-08,2.115965e-06,4.0322542e-05,3.874302e-07,0.0025909245,0.00079241395,9.119511e-06,0.0005840063,0.013323545
0.012002826,1.9013882e-05,0.0015254021,4.8190355e-05,3.5226345e-05,0.00055769086,0.007180929,8.940697e-07,0.012778342,0.951883
9.512901e-05,2.2053719e-06,0.0005431473,7.4863434e-05,9.906292e-05,0.99951375,0.011552364,2.2381544e-05,0.216732,0.00027275085
0.9952719,0.0,3.5762787e-07,2.682209e-07,0.0,0.0019874275,0.0017017126,3.0845404e-05,0.00022047758,5.376339e-05
2.9802322e-08,3.4570694e-06,0.9981859,0.9994997,6.41644e-05,0.0007483065,0.0026533902,0.0,0.020301074,2.0861626e-07
0.6594031,0.0,2.682209e-06,9.894371e-06,2.3841858e-07,0.0015515089,0.0019129515,4.1127205e-06,0.43688673,0.00010818243
0.9474733,0.0,1.8775463e-06,1.013279e-06,2.9802322e-08,0.00040528178,0.000729084,0.023939341,6.812811e-05,0.00025445223
0.00074991584,2.9802322e-08,4.631281e-05,3.901124e-05,1.3709068e-06,0.00023806095,0.0014535785,0.15683964,0.00016251206,0.45830753
0.040201783,0.0,4.1633844e-05,1.31726265e-05,0.00014969707,0.0022352934,0.0056056976,8.225441e-06,0.8780979,0.0038755238
0.9803957,6.6161156e-06,2.3126602e-05,4.7683716e-07,2.682209e-07,0.0020807385,0.013813883,3.7252903e-06,0.00057044625,0.007029444
0.29669687,1.1920929e-07,0.00020325184,8.34465e-07,0.0001386702,0.00034359097,0.0025635064,8.6426735e-07,0.0015352368,0.845433
0.00040993094,2.3841858e-07,7.945299e-05,0.002585709,0.9772765,0.0020301938,0.009077191,2.682209e-07,0.024950415,0.01137194
0.9976337,0.0,1.4901161e-07,1.7881393e-07,0.0,0.0006478429,0.0009048879,3.784895e-06,3.221631e-05,0.000169307
0.00061267614,0.22811007,0.009506881,0.0004645288,1.4543533e-05,0.0021286905,0.05596921,1.8775463e-06,0.80288315,0.027074903
0.97802037,8.940697e-08,1.013279e-06,2.682209e-07,0.0,0.00039371848,0.0010135174,2.9802322e-08,0.024964184,7.0273876e-05
0.00030434132,1.4901161e-07,2.95043e-06,5.662441e-07,1.3113022e-06,7.328391e-05,0.01448378,0.0,0.9841047,0.010656923
8.940697e-08,0.56495106,0.01356706,0.9998976,0.0017169118,0.013894081,0.12834027,2.3841858e-07,0.74848557,1.8656254e-05
0.98830557,0.0,3.5762787e-06,0.0,0.0,0.0010371804,0.0011940598,2.655387e-05,0.0003399849,0.00060763955
0.9840073,5.9604645e-08,6.183982e-05,0.0,0.0,0.00017386675,0.002556771,0.001670301,5.3346157e-06,0.0007233918
0.9974613,0.0,0.0,2.9802322e-08,0.0,0.0002541244,0.0006723404,2.115965e-06,0.00020438433,1.21593475e-05
0.9421482,0.0,4.887581e-06,1.6093254e-06,8.940697e-08,0.0014817417,0.0026685297,3.2782555e-07,0.0039699674,0.00084736943
0.082994044,5.066395e-07,8.7320805e-06,1.5348196e-05,1.0728836e-06,0.0015615225,0.004466355,1.2218952e-06,0.1638461,0.70638496
0.9753949,8.940697e-08,0.00013068318,6.556511e-07,0.0,0.0019381642,0.008677959,7.778406e-05,0.0007716119,0.0030497313
0.9933818,0.0,3.874302e-07,2.3245811e-06,0.0,0.0005580783,0.00034371018,1.7881393e-07,0.0011694729,0.0013835132
4.7683716e-07,0.0,0.0,4.172325e-07,2.0861626e-07,2.9802322e-08,8.821487e-06,0.0,4.6491623e-06,0.99996626
1.1920929e-07,3.8444996e-06,1.937151e-06,0.0,0.0,0.0,1.4007092e-06,0.0,2.9802322e-07,0.99407965
3.0994415e-06,0.9824029,0.028072655,0.5809065,0.00011354685,0.09211376,0.09840238,2.3841858e-06,0.008192688,0.0010412931
0.00023588538,0.9968636,0.0014338195,0.0017434955,3.874302e-07,0.008502066,0.005910605,7.748604e-07,0.010163963,0.0013807714
4.3451786e-05,8.940697e-08,0.0033354163,0.000110566616,0.99475986,0.0010749698,0.0031169057,5.066395e-07,0.06613976,0.001567632
0.9875267,0.0,8.940697e-08,4.172325e-07,0.0,0.0010895133,0.0014773905,4.145503e-05,0.00045976043,0.00018191338
3.8146973e-06,9.23872e-07,0.00010189414,7.253885e-05,2.682209e-07,0.000443846,0.051900923,2.0861626e-07,0.99996245,7.5399876e-06
0.99490094,0.0,2.3245811e-06,6.854534e-07,0.0,0.00054994226,0.001354754,7.748604e-07,0.00024464726,0.00023365021
2.6524067e-06,8.940697e-08,0.00015720725,0.9979546,0.0018092394,0.00023066998,0.0034555495,3.2782555e-07,7.3611736e-06,0.00037774444
4.172325e-07,6.854534e-07,0.9948494,0.0014207959,0.8436184,0.00024026632,0.006293386,1.013279e-06,0.9968003,5.632639e-06
5.453825e-06,3.874302e-06,0.0007893741,4.2706728e-05,1.1175871e-05,0.00054079294,0.0014394224,1.4603138e-06,0.0025802255,0.9982889
1.1920929e-07,3.8444996e-06,1.937151e-06,0.0,0.0,0.0,1.4007092e-06,0.0,2.9802322e-07,0.99407965
8.606911e-05,0.0,6.377697e-06,0.9997507,1.1920929e-07,0.00022402406,0.002808839,6.854534e-07,2.8640032e-05,5.096197e-06
0.9306623,0.0,2.5629997e-06,4.172325e-07,1.4901161e-07,0.0052113533,0.0040948987,0.0012429357,0.0005694032,0.0011711717
0.037892073,0.0,5.3942204e-06,7.122755e-06,2.9802322e-08,0.0001963973,0.0014127195,4.4703484e-06,0.9893068,2.387166e-05
0.9988022,0.0,1.1920929e-07,0.0,5.9604645e-08,0.0012693405,0.0010963082,4.7683716e-07,1.0639429e-05,0.000114262104
0.9786716,0.0,7.390976e-06,9.536743e-07,2.9802322e-08,0.0035189688,0.0019688308,1.1622906e-05,0.0002733469,0.00018975139
0.0006250739,2.7120113e-06,1.1920929e-05,1.6272068e-05,4.529953e-06,0.00394994,0.9918757,0.00069731474,0.04747671,0.00034093857
0.014506549,3.874302e-07,0.00019723177,0.19415939,0.0012822747,0.00211367,0.006698042,1.3411045e-06,0.4831668,0.0042352974
0.015221655,3.2782555e-07,1.1205673e-05,2.5331974e-06,1.013279e-06,0.000449121,0.0050266683,3.2782555e-07,0.9957802,2.2381544e-05
0.98952854,0.0,3.5762787e-07,1.1026859e-06,8.940697e-08,0.0013820827,0.0014823973,0.00039294362,0.0006150305,5.7011843e-05
1.4901161e-07,0.00023889542,0.4277105,0.9998068,0.00075119734,0.002336502,0.0018317997,0.0,0.079182655,2.115965e-06
1.1920929e-07,0.0010048449,0.0010454655,0.9999566,0.001370877,0.0005003512,0.027999222,0.0,0.89878213,8.34465e-07
1.7881393e-07,2.6524067e-06,0.9980362,0.9950168,2.1994114e-05,0.0010497272,0.0036400557,8.940697e-08,0.0012347102,1.0848045e-05
0.9726696,2.9802322e-08,0.00017693639,2.9802322e-07,2.0861626e-07,0.00048279762,0.001077652,4.4941902e-05,0.018997788,0.00054603815
0.00014007092,0.0,5.364418e-07,6.4373016e-06,0.0,0.0015468001,0.0034621954,1.1324883e-06,0.9991911,4.938245e-05
0.013513923,0.0001603365,1.7374754e-05,2.1100044e-05,5.066395e-07,0.0021707416,0.026461154,2.9802322e-08,0.95517695,0.007666528
0.00323838,1.4901161e-07,1.0728836e-05,4.4941902e-05,5.662441e-07,0.00037822127,0.004798591,2.2649765e-06,0.99733096,0.00013637543
0.9946104,0.0,7.1525574e-07,2.9802322e-08,5.9604645e-08,0.0003630817,0.0010200739,1.4603138e-06,0.00030061603,5.2839518e-05
4.4703484e-07,0.008681834,0.00061133504,0.9999217,0.0004120469,0.0031493306,0.015378416,5.9604645e-08,0.8350458,2.6524067e-06
0.0,0.00026273727,0.9395687,2.3454428e-05,1.6659498e-05,0.00050741434,0.56832594,1.5497208e-06,0.9985359,3.4868717e-06
0.35663897,0.0,4.7683716e-07,1.1533499e-05,0.0,0.0004208684,0.003340751,4.6491623e-06,0.9199291,7.867813e-06
0.9978479,0.0,6.2584877e-07,1.7881393e-07,0.0,0.0008704066,0.0024722219,1.1593103e-05,8.6694956e-05,1.2308359e-05
6.556511e-07,5.364418e-07,5.5998564e-05,0.9999962,0.00037959218,0.0004567504,0.010439038,0.0,0.15099287,2.3245811e-06
6.2584877e-07,5.364418e-07,0.035194248,0.9999665,0.028730273,0.0012174845,0.0070494413,3.2782555e-07,0.002988577,1.5199184e-06
6.6012144e-05,0.994992,0.0014037788,0.0008497238,2.9802322e-07,0.012671679,0.017506897,5.364418e-07,0.0039524436,0.0028043091
0.0003119111,8.940697e-08,0.000102669,2.9802322e-07,5.9604645e-08,1.2367964e-05,0.002486378,1.707673e-05,0.9998745,2.9802322e-07
9.655952e-06,0.1422697,1.3709068e-05,0.0026638806,1.847744e-06,0.084165156,0.5088449,2.682209e-07,0.22670186,0.030414283
0.07890609,0.44227022,0.00037819147,3.710389e-05,5.9604645e-08,0.007972866,0.011550397,1.1920929e-07,0.002365172,0.0033777654
0.99323934,0.0,2.0861626e-07,4.172325e-07,0.0,0.0010731518,0.0011251867,8.940697e-08,0.003019601,7.4476004e-05
1.1920929e-07,3.8444996e-06,1.937151e-06,0.0,0.0,0.0,1.4007092e-06,0.0,2.9802322e-07,0.99407965
0.0079882145,3.7252903e-06,5.90384e-05,0.00094100833,6.2584877e-07,0.0005865693,0.0012610257,2.026558e-06,0.40429264,0.59153074
8.4877014e-05,0.0,3.874302e-05,1.1950731e-05,1.7881393e-07,0.0007567704,0.008930564,0.05506113,0.9971738,2.1338463e-05
4.0233135e-06,8.940697e-08,0.00026848912,0.00025710464,0.003099233,0.00045022368,0.0032330751,0.0,0.0069478154,0.97084606
0.99853706,0.0,2.0861626e-07,0.0,0.0,0.00052314997,0.0010406673,1.1622906e-06,5.850196e-05,4.336238e-05
0.9981115,0.0,5.066395e-07,0.0,0.0,0.00048998,0.0017083287,4.798174e-06,1.8000603e-05,3.620982e-05
0.0012561679,3.5762787e-07,6.8843365e-06,3.758073e-05,0.0,0.00058731437,0.0036133826,5.364418e-07,0.9984918,8.7291e-05
0.00044861436,0.018853515,0.3150354,2.0980835e-05,3.6358833e-06,0.0032496452,0.01933363,8.940697e-07,0.006635636,0.17572027
7.3611736e-06,0.0,4.3809414e-06,8.881092e-06,8.940697e-08,0.00052565336,0.005541593,0.0006005466,0.9965068,0.0019807816
6.8843365e-06,0.023359865,0.0083550215,0.08891752,0.0066660643,0.9995128,0.20308056,0.00083452463,0.37988383,0.0003261268
3.579259e-05,1.5795231e-06,0.0028024018,2.8908253e-05,9.119511e-06,0.082588136,0.02481687,9.688735e-05,0.67717063,0.010814637
0.012367159,0.0,1.1026859e-06,9.387732e-06,1.1920929e-07,0.00067445636,0.0022898316,5.662441e-07,0.99418974,0.00032237172
0.9698652,1.0430813e-06,0.0025649667,1.4901161e-07,5.9604645e-08,0.0008009076,0.0018590391,6.905198e-05,0.00038522482,0.0039539635
0.011841476,1.1026859e-06,0.9880748,7.4505806e-07,4.172325e-07,0.0003387332,0.0020137727,6.4373016e-06,0.00048160553,0.00025129318
0.9908868,0.0,7.5399876e-06,6.854534e-07,1.1920929e-07,0.0017897487,0.0045423806,1.5735626e-05,0.0005172789,3.555417e-05
0.3697253,8.940697e-08,5.722046e-06,4.3809414e-05,5.9604645e-08,0.001966536,0.0012500286,0.0004708171,0.3858128,0.009662837
1.2665987e-05,0.9801861,0.0063720047,0.010651201,0.0014438331,0.0066150427,0.0074130893,3.5762787e-07,0.7565211,0.004727572
4.4703484e-06,0.0,3.5762787e-06,0.99999094,2.3841858e-07,0.000105410814,0.0005195141,5.9604645e-08,1.1742115e-05,9.23872e-07
1.1920929e-07,0.010269463,0.6615556,0.86585647,0.0016073287,0.00033518672,0.00844717,1.4901161e-07,0.99881864,6.854534e-07
0.9985502,0.0,3.5762787e-07,0.0,0.0,0.00015845895,0.00046175718,1.3709068e-06,9.894371e-06,1.603365e-05
0.0014874041,3.5762787e-07,0.002061069,8.34465e-06,1.4901161e-06,0.99974656,0.0075321496,7.1823597e-06,0.0020172298,6.592274e-05
0.99397206,8.940697e-08,1.5497208e-06,3.993511e-06,5.9604645e-08,0.0024487972,0.0046797693,1.0669231e-05,0.00010472536,0.0011708438
6.2584877e-07,5.0365925e-06,0.00042769313,0.00015628338,4.7683716e-07,0.99805397,0.010515422,1.2934208e-05,0.98528045,6.663799e-05
7.879734e-05,2.3841858e-07,7.870793e-05,0.99998116,1.3947487e-05,0.001667589,0.0021500885,5.9604645e-08,0.00010988116,2.682209e-06
2.0861626e-07,0.93698335,0.0151260495,0.997931,0.00063303113,0.006367892,0.016085893,5.9604645e-08,0.42771426,9.611249e-05
3.2752752e-05,5.841255e-06,0.00046655536,9.050965e-05,2.4586916e-05,0.99999917,0.030054599,2.259016e-05,0.016926378,8.314848e-06
0.00053691864,0.0,3.784895e-06,2.9802322e-07,2.0861626e-07,3.501773e-05,0.0011027753,4.9471855e-06,0.9995258,6.2584877e-07
0.013654143,0.0,2.9802322e-07,1.1324883e-06,2.9802322e-08,2.2143126e-05,0.00020584464,1.1920929e-07,0.9592781,0.00017791986
0.030680716,0.0,3.7252903e-06,5.2452087e-05,0.00036597252,0.0018979013,0.0013465285,0.00012129545,0.64261353,0.0009614825
0.00029560924,4.515052e-05,0.15496027,1.9162893e-05,2.2351742e-06,9.664893e-05,0.004915774,5.00381e-05,0.99811673,0.000104516745
0.94195646,8.940697e-08,8.404255e-06,4.7683716e-07,5.9604645e-08,0.0016682446,0.0021142364,0.00032874942,0.002115935,0.0014294386
0.8588495,0.0,2.6226044e-06,2.0861626e-06,0.0,0.14554429,0.0066102743,1.4603138e-06,0.0009468198,8.395314e-05
0.04040575,8.4489584e-05,5.1170588e-05,8.255243e-06,2.3841858e-07,0.0022729337,0.02828455,0.0002233088,0.029453933,0.15039527
0.9860367,1.4901161e-07,1.2814999e-05,4.172325e-07,1.4901161e-07,0.00044491887,0.0010145009,7.4505806e-06,0.00042283535,0.008427113
0.00012633204,2.9802322e-07,0.0010290146,1.4901161e-06,6.854534e-07,0.00032895803,0.010994017,1.4126301e-05,0.99889004,0.0002616644
1.1771917e-05,0.99879503,0.00026726723,0.0637722,3.4987926e-05,0.0045499504,0.0046440363,5.9604645e-08,0.8042437,0.0021302402
0.0,1.3113022e-06,0.9888519,0.99986553,0.98550874,0.00022441149,0.018771201,1.7881393e-07,0.00015705824,3.5762787e-07
2.7418137e-06,0.9990413,0.00040888786,0.0007457733,8.940697e-08,0.022578329,0.0015826523,5.9604645e-08,0.027476639,0.0017020106
0.9879013,0.0,1.8179417e-06,4.5895576e-06,0.0,0.00082060695,0.0005053282,9.23872e-07,0.002586633,0.0034256577
0.00040495396,0.001432687,0.00034490228,0.00011396408,2.9802322e-07,0.001567781,0.007622838,8.6426735e-07,0.9529276,0.08086327
0.13635227,9.834766e-07,2.5838614e-05,1.6987324e-06,0.0,0.0012028515,0.0037243962,8.940697e-08,0.83892435,0.0003785193
8.696318e-05,9.4771385e-06,1.1920929e-06,4.2021275e-06,3.1590462e-06,0.016207606,0.9928911,8.940697e-08,0.0043436885,0.0007174015
0.04749787,0.0,2.592802e-06,1.66893e-06,2.0861626e-07,0.0002542138,0.003446877,8.136034e-06,0.9907754,1.0997057e-05
0.0010077655,4.172325e-07,0.04634136,1.013279e-06,5.057454e-05,0.00017607212,0.001064688,0.0004477203,0.006178856,0.73413026
0.9953966,0.0,3.5762787e-07,1.6987324e-06,0.0,0.0007331073,0.0009806156,6.765127e-06,0.00012844801,0.0001809001
0.061935216,8.940697e-08,3.784895e-05,9.23872e-07,2.6524067e-06,0.0006881058,0.0020076334,8.940697e-08,0.0038231015,0.9100143
0.0019190311,4.7683716e-07,0.4996884,7.867813e-06,0.020659238,0.0013246834,0.0022715926,2.399087e-05,0.0010444522,0.01763761
0.0,4.3332577e-05,5.6624413e-06,0.99999356,1.937151e-05,0.0012187362,0.8919457,0.0,9.602308e-05,5.066395e-07
0.97301346,3.5762787e-07,4.7385693e-06,5.662441e-07,1.2814999e-06,0.0007825196,0.0016403794,4.3213367e-06,0.00022292137,0.0025026202
0.9884888,5.9604645e-08,3.2514334e-05,5.275011e-06,0.0,0.0006273091,0.0005168319,0.00044885278,0.00048971176,0.0020102859
8.940697e-07,0.0004812777,0.004149914,0.44697714,0.0039927363,0.99999774,0.03126666,6.920099e-05,0.024972647,4.300475e-05
9.2446804e-05,3.4570694e-06,0.00018715858,1.6391277e-06,6.720424e-05,0.00070247054,0.017032117,2.1755695e-06,0.00029596686,0.97169447
3.5762787e-06,0.99334395,0.0012105703,0.020101339,0.00016370416,0.92489266,0.0006817579,2.5331974e-06,0.10966253,6.5118074e-05
0.9675664,0.0,5.543232e-06,1.1920929e-07,0.0,0.00070524216,0.0012215078,0.015765429,9.5546246e-05,0.00023671985
0.9945074,0.0,6.2584877e-07,3.5762787e-07,1.7881393e-07,0.0009289086,0.0011900663,3.427267e-06,9.62317e-05,0.00018376112
0.4130774,0.0,3.5762787e-07,3.2931566e-05,0.0,0.00051271915,0.001350075,1.2516975e-06,0.60762507,0.00010368228
0.13932154,4.6789646e-06,0.032166272,2.95043e-06,1.4901161e-07,0.0031491816,0.0031222105,0.017513663,0.022570968,0.0055015385
1.2516975e-06,1.2516975e-06,9.23872e-07,2.5779009e-05,0.0,9.647012e-05,0.013206989,2.9802322e-08,0.9999465,1.847744e-06
0.99348915,0.0,1.1324883e-06,2.3841858e-07,1.4901161e-07,0.0011555254,0.0017868876,1.3709068e-05,5.9574842e-05,0.0007456243
0.00034287572,0.0,5.364418e-07,2.9802322e-07,0.0,1.9669533e-05,0.001630038,1.1920929e-07,0.99982953,7.748604e-07
0.008173615,0.0,1.30832195e-05,1.1026859e-06,6.854534e-07,0.0005001128,0.001873076,7.122755e-06,0.9925628,3.927946e-05
0.0006839633,0.0,7.5101852e-06,7.867813e-06,4.7683716e-07,0.00035628676,0.0045015514,1.1920929e-06,0.9997601,7.7188015e-06
2.7745962e-05,1.052022e-05,0.00010198355,3.1888485e-05,3.5762787e-07,0.9999784,0.010813862,8.761883e-06,0.019261211,1.8537045e-05
0.0018370748,4.348159e-05,0.00046628714,7.748604e-07,1.3500452e-05,0.002442211,0.9926765,1.937151e-06,7.998943e-05,0.0002578199
7.5101852e-06,0.99814975,0.0025637746,0.008504063,6.2584877e-07,0.012346655,0.0026894808,5.9604645e-08,0.16615674,0.0015142858
0.0017082095,0.86578524,0.001195401,4.0888786e-05,1.7881393e-07,0.0128766,0.020968288,7.748604e-07,0.005896747,0.052342862
