0,1,2,3,4,5,6,7,8,9
0.9470466,2.9802322e-08,1.22487545e-05,2.9355288e-05,0.00010332465,0.001992762,0.0013484359,1.975894e-05,0.0054146647,0.001796484
0.79784703,2.0861626e-07,2.8580427e-05,0.0001565218,4.7683716e-06,0.0013290048,0.0008544624,0.042098403,2.732873e-05,0.002138406
8.261204e-05,9.864569e-06,0.0027001202,0.00058311224,0.9550736,0.9998787,0.003963977,9.1165304e-05,0.00070238113,1.3798475e-05
5.9604645e-08,0.00013127923,3.2782555e-07,0.99999046,1.6987324e-06,0.0013983548,0.81778574,0.0,4.4047832e-05,2.682209e-07
1.7493963e-05,4.172325e-07,3.2782555e-06,0.99999446,0.0,0.00036630034,0.0018564165,0.0,0.00014284253,3.2484531e-06
0.98453325,0.0,1.1622906e-06,2.682209e-07,2.682209e-07,4.3988228e-05,5.13494e-05,0.0015657246,2.0861626e-06,0.0004749894
0.07854709,1.5795231e-06,9.867549e-05,2.0474195e-05,9.715557e-06,0.001392901,0.014077485,2.115965e-06,0.8854588,0.012643993
0.0,1.1920929e-07,1.8060207e-05,0.9999914,0.99148595,2.82228e-05,0.0010602474,0.0,3.3557415e-05,8.940697e-08
1.4305115e-05,9.864569e-06,0.0009120405,0.22544742,6.3329935e-05,0.00036147237,0.0022550523,1.8566847e-05,0.9980688,3.5345554e-05
0.0055909157,2.7418137e-05,3.3676624e-06,4.3809414e-06,4.7683716e-07,0.009468108,0.98405004,1.14142895e-05,0.0046797693,0.00015899539
0.00031489134,2.4437904e-06,0.7034317,7.5399876e-05,1.347065e-05,0.0004490912,0.003015697,4.3958426e-05,0.97623396,0.0004951954
0.011210293,0.0,5.671382e-05,1.013279e-06,1.4007092e-06,0.00027394295,0.0004425645,1.0222197e-05,0.9974063,1.2993813e-05
1.7285347e-06,0.6670992,0.0050669312,0.99493194,0.00017812848,0.0012654066,0.007784128,0.0,0.8538359,0.00033032894
5.2541494e-05,0.9753031,0.00033539534,0.00024989247,4.798174e-06,0.0002105236,0.0005040765,1.7881393e-07,0.00113976,0.15964007
0.15072805,1.1920929e-07,0.00024574995,5.096197e-06,1.1920929e-06,0.00072309375,0.0017442703,8.895993e-05,0.92870617,0.00012725592
0.011700779,0.16958216,0.00047889352,0.00025984645,3.3915043e-05,0.007653624,0.3492021,2.592802e-06,0.2890223,0.040095538
8.940697e-07,1.4901161e-07,2.6226044e-05,0.99996006,1.2308359e-05,0.00053218007,0.0014615655,0.0,0.124492615,3.1888485e-06
0.9905118,2.9802322e-08,1.23381615e-05,1.66893e-06,2.9802322e-07,0.0004733801,0.00069472194,1.6391277e-06,2.6106834e-05,0.009693354
2.682209e-07,0.0018170774,0.17802444,0.019951493,0.00127545,0.01751262,0.89498085,1.8119812e-05,0.09930515,0.0023425817
1.770258e-05,1.3619661e-05,1.052022e-05,0.0010595918,4.5001507e-06,0.0011394024,0.651822,0.0037122369,0.979128,0.00019651651
0.98795795,0.0,1.9431114e-05,3.4570694e-06,1.4901161e-06,0.0007289648,0.0004401505,0.000138551,3.9964914e-05,0.00047117472
0.04551655,8.940697e-08,0.9251927,0.00077313185,1.1116266e-05,0.00028279424,0.0014845729,0.0001128912,0.0003388226,0.0021609068
0.9922348,2.9802322e-08,4.529953e-06,8.046627e-07,8.34465e-07,0.00045520067,0.00045114756,7.1525574e-07,0.00011384487,0.003984213
0.0030694902,7.867813e-06,0.0042903125,0.02029568,2.9116869e-05,0.0011733174,0.006975949,3.1501055e-05,0.9800558,0.002625078
0.006829381,6.2584877e-07,0.0002708733,7.301569e-06,2.1874905e-05,0.00049835443,0.008196145,1.385808e-05,0.9927908,9.945035e-05
3.6358833e-06,0.0003837049,0.651564,0.00030377507,0.00012490153,0.5291029,0.034152865,0.00033903122,0.04721421,0.045279354
0.018864512,0.0035802424,0.0001963675,2.8192997e-05,1.04010105e-05,0.007992357,0.7053158,0.0011440814,0.00017508864,0.0057663023
0.9519082,0.0,2.7656555e-05,8.34465e-07,4.1127205e-06,0.00053083897,0.0004953444,0.027888358,2.0682812e-05,0.0014053583
0.102885276,8.940697e-08,8.1807375e-05,1.5497208e-06,6.854534e-07,0.00027275085,0.00035190582,0.95406425,0.0009377301,0.0005812347
9.23872e-07,0.9090432,0.002003312,0.6549921,0.00022211671,0.0009447932,0.03863612,4.172325e-07,0.9871588,0.00039446354
0.007986277,0.00035712123,1.7374754e-05,8.34167e-05,1.3709068e-06,0.018017888,0.9816476,2.7567148e-05,0.024948299,0.0007927418
4.7802925e-05,4.3570995e-05,1.50203705e-05,5.3703785e-05,1.7881393e-06,0.06301364,0.9896366,1.1742115e-05,0.34023392,0.00029024482
0.097011596,3.1799078e-05,0.0001706481,2.4735928e-06,6.2584877e-07,0.005752474,0.96929795,2.3841858e-06,7.843971e-05,0.00036141276
1.7523766e-05,1.758337e-06,2.0563602e-05,0.99987376,0.00026243925,0.0012816489,0.0050370693,2.0861626e-07,0.000115036964,0.00011086464
0.90770364,0.0,2.7418137e-05,1.3113022e-06,5.841255e-06,0.0008482933,0.00067439675,6.735325e-06,0.24018016,6.9111586e-05
0.9983986,8.940697e-08,1.9311905e-05,5.364418e-07,8.940697e-08,0.00027760863,0.0012910366,4.440546e-06,2.8312206e-06,0.00029331446
0.91421247,1.4901161e-07,0.00017499924,2.3841858e-06,4.887581e-06,0.0015990138,0.0052925944,5.841255e-06,0.011825293,0.009573102
0.9951122,0.0,1.50203705e-05,6.8843365e-06,9.23872e-07,0.00039583445,0.0006519258,2.2649765e-06,6.0260296e-05,0.0021292865
0.9896778,1.1920929e-07,2.1547079e-05,2.2649765e-06,2.0563602e-06,0.0006378889,0.0010246038,4.5895576e-06,4.041195e-05,0.014356971
0.001265943,2.3841858e-07,7.426739e-05,1.5676022e-05,1.0699034e-05,0.00021570921,0.0008749962,0.00181669,0.99279684,0.00016221404
3.0994415e-06,6.854534e-07,0.9969955,8.9496374e-05,0.0007942915,0.0016762912,0.009856552,0.002901286,0.86806417,4.091859e-05
0.9033189,2.9802322e-08,4.1097403e-05,4.0233135e-06,1.7136335e-05,0.0015507936,0.0019735992,1.3113022e-06,0.053346276,0.0010142326
0.00013592839,3.5971403e-05,0.002619177,4.863739e-05,0.00018084049,0.9998981,0.021955043,3.9041042e-05,0.07236278,0.00016596913
3.8146973e-06,0.9990934,0.00029698014,0.0011759102,6.66976e-05,0.0040409565,0.001711458,2.3841858e-07,0.9333236,0.00023639202
0.00032642484,1.6093254e-06,9.441376e-05,6.3985586e-05,8.672476e-06,0.00024181604,0.0019831061,5.0872564e-05,0.99908113,0.00033310056
0.05106452,0.0,4.6551228e-05,3.4868717e-06,5.9604645e-08,3.1769276e-05,0.000107973814,0.9911673,0.00019827485,7.799268e-05
0.11334109,6.854534e-07,0.0005684793,5.6028366e-06,3.3825636e-05,0.00090038776,0.0018156469,3.245473e-05,0.9242604,0.00095796585
0.0030910373,6.79791e-05,0.005865276,0.06291914,0.0011986196,0.0038469732,0.01996249,0.00025609136,0.96248627,0.003977746
2.2888184e-05,0.99878085,0.0005660951,0.00040742755,4.6938658e-05,0.011482507,0.0012814403,8.34465e-07,0.05154541,0.002617538
0.99846244,0.0,1.7285347e-06,2.3841858e-07,8.940697e-08,0.00025081635,0.00030714273,8.940697e-07,3.796816e-05,6.3329935e-05
0.0020392835,4.953146e-05,0.002321303,0.00046506524,0.00021028519,0.08139038,0.050459385,0.0026086569,0.0037013292,0.17458469
0.0002593398,0.99534976,0.00069743395,5.888939e-05,1.7881393e-06,0.0018207729,0.0089351535,6.556511e-07,0.0047424436,0.0016950667
1.4811754e-05,0.00012078881,0.0012906194,5.415082e-05,2.5182962e-05,0.99974895,0.013372809,6.341934e-05,0.26987118,0.0003296435
0.7989186,5.066395e-07,3.322959e-05,2.4735928e-06,3.5762787e-07,0.00062319636,0.0016488433,0.00013262033,0.32854456,0.0007611811
0.96787214,5.066395e-07,8.800626e-05,5.2154064e-06,5.3942204e-06,0.0008253455,0.001285702,3.5762787e-06,0.0023845434,0.041477233
0.00017485023,0.9987025,0.0021448135,0.00042942166,5.465746e-05,0.0047636926,0.0016429424,1.4901161e-07,0.019931942,0.0016381443
0.9367823,5.662441e-07,8.249283e-05,4.7683716e-07,0.0,0.00055360794,0.0007171035,3.2186508e-06,0.05914128,0.0072014034
0.00034850836,0.99592185,0.0046385825,0.0002540946,1.1533499e-05,0.0120078325,0.00632748,2.193451e-05,0.000279665,0.0011146963
0.9621244,1.1920929e-07,0.00012215972,5.632639e-06,5.066395e-06,0.00092095137,0.001691699,0.0002335608,0.0049364567,0.0034983754
0.00074487925,0.9934651,0.0004886389,4.23193e-06,1.3411045e-06,0.00065237284,0.001884073,0.0,0.03300917,0.0012110472
0.9979216,0.0,2.503395e-06,5.364418e-07,0.0,0.00011271238,0.0006490648,3.0994415e-06,2.8908253e-06,0.00065234303
0.03175935,1.1533499e-05,0.000498116,6.7949295e-06,8.404255e-06,0.87930954,0.003676355,3.1918287e-05,0.22197941,0.0003453493
2.6226044e-06,6.66976e-05,0.0039211214,0.01174736,0.95441973,0.99877656,0.002194792,0.00010237098,0.00048023462,5.7905912e-05
0.00042572618,0.0013191998,0.00010561943,0.00017428398,0.0015047193,0.0017418861,0.029607773,3.0994415e-06,0.96301657,0.00044742227
0.02256605,1.2099743e-05,0.0001206398,9.4771385e-06,1.04904175e-05,0.00025326014,0.004166335,8.34465e-07,0.89403194,0.010365397
0.9945425,0.0,3.0726194e-05,4.5001507e-06,2.3841858e-07,0.000485003,0.0005312264,7.301569e-05,3.2275915e-05,0.00035700202
0.99197865,0.0,1.8954277e-05,2.682209e-07,8.940697e-08,0.0004374683,0.00070139766,0.00024592876,0.0001809001,0.0005478561
5.2392483e-05,1.9967556e-06,0.026704162,0.0005851388,0.030093879,3.966689e-05,0.0028462708,0.00012275577,0.99807346,0.0020391643
3.0040741e-05,4.082918e-06,0.013104141,0.00076416135,0.00012910366,0.00057554245,0.0067548156,0.2480042,0.7195047,0.015095115
0.011075944,0.0,1.2695789e-05,8.940697e-08,2.9802322e-08,4.9471855e-06,2.8967857e-05,0.999336,1.3113022e-06,1.7881393e-05
0.28720957,1.7881393e-07,7.042289e-05,2.5331974e-06,9.23872e-07,0.00013828278,0.0007379651,5.662441e-07,0.7986038,0.00063979626
0.98822284,0.0,1.0937452e-05,2.7120113e-06,2.5331974e-06,0.0006464422,0.001036942,9.387732e-06,0.00063312054,0.0005889237
5.5134296e-06,2.771616e-06,0.00066918135,0.99995637,8.761883e-06,0.00041893125,0.002468288,1.2218952e-06,6.264448e-05,2.4586916e-05
2.6911497e-05,5.9604645e-08,6.9737434e-06,0.99999654,3.874302e-07,0.0001681149,0.00045627356,0.0,7.390976e-06,1.4901161e-07
2.2053719e-06,1.7881393e-07,2.9832125e-05,0.9999989,9.864569e-06,0.00021454692,0.0011657178,0.0,0.00011834502,1.3411045e-06
0.0039969683,2.4735928e-06,4.0858984e-05,5.5134296e-06,2.938509e-05,0.0005697608,0.0039910674,7.122755e-06,0.9796471,0.0036747754
0.6670371,0.0,8.156896e-05,1.9103289e-05,3.963709e-06,0.0001707375,0.00067549944,0.68855965,8.779764e-05,0.00028771162
0.9371171,1.1920929e-07,2.4676323e-05,9.715557e-06,9.834766e-07,0.0006174743,0.0011658669,0.0041627586,0.00026673079,0.07001948
0.6961339,5.9604645e-08,3.3825636e-05,8.34465e-07,1.7881393e-07,0.0006055832,0.00045460463,0.005705267,0.05473718,0.0011936426
0.22362274,0.0,2.336502e-05,0.6335614,6.0796738e-06,0.0011134744,0.0004913509,1.0371208e-05,0.0009176731,0.00011664629
0.9928066,0.0,5.2452087e-06,2.9802322e-07,7.4505806e-07,0.001083672,0.0018712282,4.2527914e-05,0.00010237098,0.0013373792
0.00091582537,0.0,3.7252903e-06,6.92606e-05,0.9993067,0.00014448166,0.0018983483,2.9802322e-07,2.8192997e-05,2.2053719e-06
0.99407315,2.9802322e-08,8.3595514e-05,3.1292439e-06,1.7881393e-07,0.00044625998,0.001167804,1.9609928e-05,0.00012499094,0.00018206239
0.9953631,0.0,1.1444092e-05,7.4505806e-07,4.7683716e-07,0.0006477535,0.0008263886,5.4836273e-06,8.147955e-05,0.00010070205
0.00011605024,1.4901161e-06,0.027311414,0.00011229515,0.0015374422,0.00016713142,0.010524213,0.00048449636,0.99887544,6.148219e-05
0.9799115,5.9604645e-08,6.738305e-05,4.7683716e-07,2.5629997e-06,0.00036635995,0.0007598698,0.0041843355,5.364418e-05,0.002032727
0.00019174814,4.261732e-06,0.0001539886,4.631281e-05,2.026558e-06,0.7608353,0.050048977,3.3915043e-05,0.96833867,2.4586916e-05
1.1920929e-06,3.3080578e-06,2.965331e-05,0.000118255615,2.1755695e-06,0.0002834201,0.0013005137,1.9669533e-06,0.0009897351,0.9983686
5.00679e-06,4.4703484e-07,2.4110079e-05,0.99999577,2.115965e-06,0.0007429421,0.003142327,0.0,0.0024770796,3.516674e-06
4.8696995e-05,0.99722373,0.007635832,0.04672879,0.041996777,0.0066260993,0.0049437284,9.536743e-07,0.07761592,0.00041157007
0.032650292,1.1622906e-06,0.0002783537,0.00015690923,0.00023570657,0.00067332387,0.0020600557,0.00030690432,0.9414011,0.012264609
0.9857979,0.0,7.212162e-06,1.5199184e-06,8.940697e-08,0.00092592835,0.0006042719,3.4362078e-05,0.03134021,0.00065404177
6.4074993e-06,0.0,4.7683716e-07,3.5762787e-07,0.0,8.940697e-08,9.834766e-06,0.0,4.3541193e-05,0.9999513
0.13873729,2.9802322e-08,1.31726265e-05,0.00012075901,1.7881393e-07,0.0003104806,0.00017154217,0.94220877,0.0009937286,0.005741
1.5199184e-06,0.0012189448,0.71458656,0.012174338,0.0070483685,0.99993634,0.0036078095,0.00055119395,0.06935939,0.00014677644
0.9790923,1.1920929e-07,4.261732e-06,4.4703484e-07,3.33786e-06,0.00092834234,0.001165688,7.748604e-07,0.010874838,8.761883e-05
3.811717e-05,3.7252903e-05,0.93839455,3.3140182e-05,0.0006467998,0.0020126402,0.052366883,1.79708e-05,0.9733529,0.00054481626
0.8880724,0.0,0.00033211708,1.2516975e-06,1.1920929e-05,0.00021705031,0.00047126412,0.003165722,5.1259995e-05,0.014617294
0.0,0.0046688616,0.00017237663,0.99998856,0.00010484457,0.0041466057,0.417562,2.9802322e-08,0.069633365,8.460879e-05
5.8352947e-05,7.748604e-07,0.000205338,0.00021630526,1.7553568e-05,0.00054496527,0.0020795166,0.013062865,0.0014210045,0.94310355
0.9708181,2.9802322e-08,0.00032016635,3.3080578e-06,8.046627e-07,0.0011485219,0.00061270595,0.0001361072,0.003680408,0.0013907552
0.9190382,2.9802322e-07,0.00012871623,0.00015836954,2.82228e-05,0.0027182102,0.006193936,1.6957521e-05,0.01103735,0.0069425404
0.00031784177,2.5629997e-06,0.0013492405,9.006262e-05,0.002000749,0.00019344687,0.0031301081,3.2395124e-05,0.9989185,0.0003209412
0.32312375,1.4901161e-07,7.4863434e-05,3.3676624e-06,1.0997057e-05,0.00028419495,0.0005197823,6.6161156e-06,0.16936424,0.163322
0.9873191,0.0,2.413988e-06,2.7120113e-06,1.335144e-05,0.0010351539,0.00040185452,3.3020973e-05,7.408857e-05,2.6375055e-05
1.66893e-06,0.94439185,0.011902422,0.9652767,0.00029048324,0.15809101,0.010153562,1.4901161e-07,0.023562402,0.03265235
0.00041037798,4.23193e-06,0.0073320866,7.06017e-05,0.00020045042,0.99998903,0.0015231669,0.011246562,0.0007663965,7.259846e-05
1.0639429e-05,0.0017972887,0.5619152,0.997918,0.012540996,0.0018306971,0.011111766,9.030104e-06,0.3064441,0.0033782423
0.91922927,3.2782555e-07,2.6404858e-05,2.4735928e-06,6.467104e-06,0.0011999607,0.003870368,6.943941e-06,0.020438373,0.0057475567
1.475215e-05,4.7683716e-07,4.261732e-06,0.99998903,1.0669231e-05,0.00051385164,0.0032871068,0.0,0.0004389882,1.6868114e-05
0.9836532,0.0,1.707673e-05,5.841255e-06,1.9073486e-06,0.00022622943,0.00037536025,0.000797987,0.000102967024,0.00039094687
2.8312206e-06,7.1525574e-07,0.00021526217,0.97884923,0.99953854,9.647012e-05,0.0019961596,0.0,0.001314491,1.707673e-05
1.1920929e-07,0.94200224,0.00021147728,0.80994725,4.658103e-05,0.0016395152,0.009798646,1.1920929e-07,0.9972693,9.208918e-06
0.988482,8.940697e-08,7.838011e-06,7.867813e-06,7.0929527e-06,0.0018561184,0.0048850775,1.1026859e-06,0.0007236898,0.0014212728
3.5762787e-07,0.00011539459,0.991292,0.00012275577,0.000408262,0.0027839541,0.0054883957,1.0341406e-05,0.9866642,2.1964312e-05
0.91466355,8.34465e-07,0.0039209425,2.2947788e-06,1.9073486e-06,0.0016643405,0.0038327277,7.1823597e-06,0.0031114817,0.01321426
3.1650066e-05,0.00026455522,0.00044739246,0.00027424097,0.000118374825,0.9976964,0.053973436,6.1392784e-06,0.91553396,0.00021442771
7.560849e-05,0.00035867095,0.026617974,0.00031155348,0.00054216385,0.99965274,0.035859525,1.3798475e-05,0.017878383,0.00019818544
2.2470951e-05,9.3996525e-05,0.0008482337,0.99991053,4.172325e-06,0.0024622083,0.058638573,3.5762787e-07,0.00022655725,0.0004749596
1.0877848e-05,8.940697e-08,0.00015234947,2.732873e-05,1.758337e-06,0.00019004941,0.0015660822,0.9952562,0.0018288493,0.012090296
0.9883898,0.0,9.983778e-06,2.413988e-06,6.020069e-06,0.0014291406,0.000546664,1.218915e-05,0.0024402738,0.00032410026
0.99558127,0.0,1.6152859e-05,5.662441e-07,1.4901161e-07,0.00037154555,0.00042247772,7.742643e-05,0.00014954805,0.00022467971
0.99631983,0.0,4.0382147e-05,2.2947788e-06,4.4703484e-07,0.0005595684,0.0006429851,7.688999e-06,0.00012394786,0.00042554736
0.31011665,2.9802322e-07,2.8908253e-05,2.2649765e-06,2.771616e-06,0.0003439784,0.00051796436,6.747246e-05,0.8943449,0.0015991032
0.63514334,8.34465e-07,5.3793192e-05,3.272295e-05,2.3424625e-05,0.0015788078,0.0023138523,3.0100346e-06,0.03983164,0.020461679
0.0001475513,0.0,1.1920929e-07,8.940697e-08,0.0,0.0,1.0341406e-05,0.0,8.34465e-07,0.9999944
0.0003710389,2.3275614e-05,0.014890581,0.00026714802,1.3291836e-05,0.000115185976,0.002068162,1.1146069e-05,0.28358227,0.9340621
8.34465e-07,0.9277936,0.00013461709,0.0010914803,1.5497208e-06,0.0004003942,0.0001975894,1.7881393e-06,0.0009939075,0.11301264
0.03061834,5.662441e-07,0.0002246201,1.3560057e-05,4.428625e-05,0.0003322363,0.0015853643,9.000301e-06,0.9682834,0.001962334
0.80691123,1.1026859e-06,0.0002296567,9.894371e-06,6.3180923e-06,0.0012311935,0.00091823936,1.630187e-05,0.11794859,0.009552747
2.5570393e-05,0.9990058,0.0010146499,6.1392784e-05,1.579523e-05,0.007896304,0.011057913,2.7000904e-05,0.029273033,0.0005682111
0.011110038,7.4505806e-07,0.00012040138,1.9609928e-05,9.536743e-07,0.00011509657,0.0012129545,6.3478947e-06,0.99045885,0.0005812645
0.036214918,0.00022986531,0.00013530254,2.7060509e-05,3.734231e-05,0.008856088,0.78737974,0.00092357397,0.0075262487,0.0053062737
0.94878936,1.4901161e-07,1.5318394e-05,9.834766e-07,1.4901161e-07,0.0008352101,0.0023302138,8.34465e-07,0.050205052,0.006000459
1.1622906e-06,0.99775517,0.0008203089,0.70286083,9.596348e-06,0.0014181137,0.0009854436,2.0861626e-07,0.001608491,0.00054731965
3.5762787e-07,4.118681e-05,0.0007416606,0.9991238,0.007444471,0.00095027685,0.020345837,6.854534e-07,0.0012540519,0.009623796
0.1181159,6.556511e-07,6.112456e-05,0.6481629,0.00047019124,0.005270809,0.0064178407,1.4007092e-06,0.033339888,0.006522119
0.6754581,9.387732e-06,0.00015732646,3.33786e-06,1.013279e-06,0.0003646016,0.00049960613,4.7683716e-07,0.4752292,0.008986294
0.1585288,6.2584877e-07,0.03548169,6.198883e-06,1.7762184e-05,0.00070878863,0.0018312931,2.3037195e-05,0.85485303,0.0007223785
0.00031864643,1.4901161e-07,0.0002759397,9.834766e-07,2.4199486e-05,0.00014060736,0.0012331605,6.8843365e-05,0.99859226,0.00013566017
0.26461226,5.272031e-05,4.914403e-05,0.00010803342,1.013279e-06,0.000418514,0.0010030568,3.2186508e-06,0.52860665,0.015161663
0.93765515,0.0,0.00013428926,3.6358833e-06,1.1920929e-07,0.0008134842,0.0018359721,6.946921e-05,0.07776803,0.00018715858
0.9401777,1.4901161e-07,7.1018934e-05,1.0430813e-06,3.695488e-06,0.0022822917,0.0021729171,3.835559e-05,0.009988725,0.010205388
0.9965906,0.0,2.5331974e-06,2.682209e-07,2.9802322e-08,0.00030773878,0.00028526783,1.1026859e-06,0.00012522936,0.0005630851
2.0563602e-06,7.033348e-06,7.748604e-07,0.999992,4.0233135e-06,0.0011979043,0.020524472,0.0,2.092123e-05,1.0728836e-06
0.4954139,5.9604645e-08,1.5348196e-05,6.854534e-07,3.5762787e-07,0.00048673153,0.0020970702,4.7683716e-07,0.88630223,0.00018826127
0.97572017,0.0,4.7683716e-05,5.6028366e-06,3.5762787e-07,0.0004643798,0.00026640296,0.000330925,0.0019800365,0.002325356
0.9922671,2.9802322e-08,4.5001507e-06,5.364418e-07,2.682209e-07,0.0002528429,0.00042918324,2.115965e-06,1.579523e-05,0.007133305
0.15569046,1.1920929e-07,0.0010110736,3.3080578e-06,8.225441e-06,0.00035107136,0.0012147427,1.0311604e-05,0.89684284,0.0011335313
0.99050987,0.0,1.8149614e-05,5.841255e-06,7.748604e-07,0.00074470043,0.0007889867,1.0102987e-05,0.0013513565,0.000605762
0.6287674,2.0861626e-07,5.3793192e-05,1.9550323e-05,3.9070845e-05,0.0024783611,0.002657026,5.1259995e-06,0.39270237,0.0017357767
0.0031996667,0.93319106,0.0006955564,3.784895e-06,2.2649765e-06,0.0007120669,0.006652534,1.1920929e-07,0.004972577,0.029086083
0.031063974,3.683567e-05,3.090501e-05,0.00018772483,2.115965e-06,0.005892813,0.9606428,0.0026167333,4.1097403e-05,0.00055876374
0.0144409835,0.0043086708,0.01815468,0.0033427477,0.0019635856,0.9323117,0.1292479,0.0032233,0.45024785,0.008574098
0.0006993413,9.834766e-07,9.781122e-05,0.18767127,3.3527613e-05,0.00029292703,0.0076702237,1.1920929e-07,0.9091345,0.013705999
0.5480784,1.66893e-06,1.770258e-05,5.3048134e-06,1.4901161e-07,8.33869e-05,0.00012111664,2.5331974e-06,5.5998564e-05,0.88640356
1.2606382e-05,1.1920929e-07,0.0007250905,0.0013020933,0.80356526,8.3595514e-05,0.0016064644,1.3560057e-05,0.9898934,1.3232231e-05
0.00033044815,0.9957522,0.0011383593,0.0020253956,0.0003055036,0.004374534,0.0060124695,3.5762787e-07,0.15848178,0.004110396
3.4302473e-05,3.2782555e-07,1.8179417e-05,0.99998343,5.9485435e-05,0.00057059526,0.0022521317,0.0,0.000513047,6.735325e-06
0.9979318,0.0,1.2427568e-05,6.2584877e-07,2.9802322e-07,0.00018981099,0.0005118251,3.695488e-06,3.0100346e-06,0.00016537309
0.17398718,2.1457672e-06,0.00035449862,3.3527613e-05,4.172325e-07,0.00019013882,0.00081044436,0.7102096,4.5627356e-05,0.006202042
0.017962128,2.3245811e-06,0.00045213103,0.00039866567,6.6161156e-06,0.9967518,0.0025750995,0.00010472536,0.0024183393,0.0006661117
2.2560358e-05,0.0,7.7188015e-06,1.013279e-06,0.0,5.275011e-06,0.00013878942,5.9604645e-08,6.854534e-07,0.99996114
1.3709068e-06,0.99631095,0.0011026561,0.0009832084,1.129508e-05,0.0019065738,0.0046658516,1.7881393e-07,0.9965195,1.3500452e-05
0.0,0.00020316243,0.00046220422,0.9999588,0.0016638935,0.0012256801,0.058718085,5.364418e-07,0.0038816333,0.00026893616
0.0076129735,7.778406e-06,0.0011158586,0.00014895201,0.00014007092,0.00050371885,0.0038611293,0.00013053417,0.988709,0.003864497
8.3208084e-05,0.028401464,0.0003798902,0.0007760525,4.4733286e-05,0.020323932,0.13408083,0.0001514852,0.9885638,0.00043824315
0.97199005,8.34465e-07,0.00015819073,4.452467e-05,6.8843365e-06,0.0011841357,0.0030434728,5.662441e-07,0.0012635887,0.012379438
0.8685541,1.4901161e-07,4.8428774e-05,4.5001507e-06,3.1590462e-06,0.0010618567,0.0012701452,0.00018557906,0.20626575,0.00014865398
0.0011099875,1.1920929e-07,3.1501055e-05,5.4121017e-05,0.00032421947,0.00017163157,0.0017507374,4.6670437e-05,0.99799645,0.00022062659
0.0008392334,0.002835244,0.00024849176,0.1258137,0.00048738718,0.41835457,0.45933944,2.0503998e-05,0.019806415,0.069486886
0.9937603,8.940697e-08,1.4543533e-05,2.592802e-06,5.930662e-06,0.0010309815,0.0011770129,2.115965e-06,0.00015950203,0.0013431907
0.99266315,0.0,6.7055225e-06,9.536743e-07,1.6391277e-06,0.0004478395,0.0015166104,1.0460615e-05,0.00014930964,0.0014246702
0.0022579134,0.0,0.000100106,5.1528215e-05,1.3113022e-06,0.00037881732,0.00018802285,4.0233135e-06,0.0018288493,0.9802888
0.8469256,1.1771917e-05,0.0002425611,0.00042390823,3.4570694e-06,0.007361084,0.050546914,0.00029736757,0.000113904476,0.0040501356
0.0008676648,0.97042996,0.008270919,3.6418438e-05,1.937151e-06,0.0026518106,0.01924339,9.23872e-07,0.00857082,0.0010485947
5.9604645e-08,3.874302e-07,0.00018703938,0.9999843,0.2552225,7.802248e-05,0.0028024614,2.9802322e-08,0.00041779876,3.7550926e-06
0.00011920929,3.2186508e-06,1.7881393e-07,0.00024801493,1.9907951e-05,0.0028855503,0.9959631,1.7881393e-07,0.0006223321,5.6535006e-05
0.9938433,0.0,1.0877848e-05,2.682209e-07,2.9802322e-07,9.775162e-05,0.0002656281,0.00044316053,5.275011e-06,1.9907951e-05
0.00014561415,1.1205673e-05,0.9893303,8.136034e-06,0.00021329522,0.0014556646,0.012570739,4.440546e-06,0.90750515,2.3514032e-05
1.7881393e-07,1.5437603e-05,0.0005251765,0.0004671812,0.00016707182,0.99999166,0.013842732,5.3942204e-06,0.01141414,0.00087478757
0.9947843,1.4901161e-07,2.1964312e-05,3.0100346e-06,5.662441e-07,0.00049841404,0.0008278489,1.1026859e-06,0.00048333406,0.001401782
0.00084003806,0.0006660521,0.0063617826,0.00032812357,4.029274e-05,0.9923862,0.033091098,0.01365903,0.0029908717,0.014629394
0.0011705458,5.364418e-07,1.22487545e-05,1.6987324e-06,2.9802322e-08,9.068847e-05,0.00028032064,0.000109016895,0.99808484,0.0001231134
9.23872e-07,0.00060516596,0.00011509657,0.001499027,7.233024e-05,0.3366285,0.87935364,7.516146e-05,0.414594,0.001023382
2.336502e-05,0.98708177,0.0023455918,0.6838485,1.2904406e-05,0.019579321,0.047739297,4.7683716e-07,0.46622422,0.004497707
5.990267e-06,5.6922436e-06,0.0039631426,7.033348e-05,3.5077333e-05,0.99999833,0.0026688576,2.2023916e-05,0.069212615,9.685755e-06
0.2818084,8.183718e-05,0.00031802058,0.00078347325,7.1525574e-07,0.000551492,0.0012316704,1.0728836e-06,0.0005094111,0.7929491
0.8462087,5.364418e-07,1.7106533e-05,1.8775463e-06,1.1622906e-06,0.0008497238,0.0013690591,1.3709068e-06,0.22920823,0.0019221008
0.7574003,6.2584877e-07,3.129244e-05,2.8908253e-06,2.0861626e-06,0.0013919771,0.00065904856,0.0013054311,0.26798743,0.006267667
7.4505806e-07,0.00033298135,0.0029771626,0.006231904,0.0006931722,0.99889326,0.008839846,0.00041037798,0.0076577365,0.037538648
4.917383e-06,0.00018498302,0.886724,7.390976e-05,0.00013369322,0.0006290972,0.002461493,8.5800886e-05,0.9976164,0.00015667081
0.014308602,3.4481287e-05,0.021311551,0.0007381439,0.04420176,0.0011191368,0.01703751,5.8054924e-05,0.792683,0.037342638
1.719594e-05,0.00033399463,0.0008318722,0.0002901852,2.4527311e-05,0.39161927,0.23435625,0.00027939677,0.9670905,0.0010522902
0.9305048,5.9604645e-08,5.8591366e-05,1.7285347e-06,3.3080578e-06,0.00065127015,0.0003862083,0.002248764,0.007169217,0.005541742
0.6945108,7.748604e-07,6.201863e-05,4.261732e-06,1.2516975e-06,0.00035643578,0.001342088,5.6922436e-06,0.050679594,0.15052912
0.0017644167,0.00057300925,0.004114896,0.0004823804,0.00041520596,0.95672846,0.21178448,0.00440377,0.0076167285,0.007705182
3.4421682e-05,4.172325e-07,0.9955435,0.00014275312,0.00025501847,0.0011761487,0.0052895546,4.941225e-05,0.9809425,2.7477741e-05
1.92523e-05,0.000608176,0.89489836,0.0006943345,0.00361225,0.5017675,0.07033372,0.0010288954,0.9053869,0.0008300245
1.9073486e-06,0.025467008,0.00084349513,0.84413123,0.0003065467,0.0010272563,0.8931929,5.364418e-07,0.62852895,0.0027569234
0.66540647,7.122755e-06,0.00015839934,0.022218853,0.0027049184,0.009195089,0.0628885,2.5004148e-05,0.0023502111,0.043239653
0.014751673,2.3841858e-07,0.9839035,4.5388937e-05,0.00014808774,0.0020047128,0.007212281,9.5665455e-05,0.00015941262,0.001062125
0.26134807,5.9604645e-08,0.0002812147,7.390976e-06,6.1690807e-06,0.00020229816,0.00037753582,2.1457672e-06,0.8588381,0.0010507107
1.8775463e-06,0.131401,0.055814832,0.9991298,0.0032544732,0.0015430152,0.0010654032,1.4901161e-07,0.012233317,0.00016352534
0.9952057,2.9802322e-08,1.0579824e-05,6.854534e-07,5.9604645e-08,0.0005989969,0.001640588,1.4036894e-05,7.921457e-05,0.000228405
0.25081372,8.9496374e-05,3.066659e-05,6.4074993e-06,3.5494566e-05,0.0073149204,0.87508637,1.5467405e-05,0.0027943552,0.00034442544
0.0008803308,0.0,0.00016587973,3.3468008e-05,0.021055728,0.00015637279,0.0013282597,1.1086464e-05,0.9981297,2.527237e-05
6.943941e-06,2.1457672e-06,8.165836e-06,0.999981,3.0994415e-06,0.0003541112,0.008666009,0.0,0.00035697222,3.4958124e-05
0.9955286,0.0,4.798174e-06,2.026558e-06,6.2286854e-06,0.00036501884,0.0009896159,3.015995e-05,6.4492226e-05,6.631017e-05
0.109969884,1.4394522e-05,0.00011974573,0.43552944,1.1563301e-05,0.006079912,0.020589799,2.1278858e-05,0.000523299,0.05548829
0.033703715,0.0,4.7653913e-05,7.7188015e-06,0.0219177,0.00050354004,0.0013328493,1.6570091e-05,0.9595437,0.00018307567
2.6136637e-05,2.014637e-05,0.0015326738,2.9444695e-05,1.3768673e-05,0.9999926,0.016961485,4.2885542e-05,0.055773735,2.8699636e-05
0.9686763,3.0100346e-06,2.9951334e-05,0.00021222234,2.0354986e-05,0.002046883,0.0063746274,3.3408403e-05,2.0563602e-05,0.006457299
1.1771917e-05,1.4603138e-06,0.010647684,0.9999575,3.3676624e-05,0.00022789836,0.00044083595,0.0,1.23381615e-05,3.2782555e-07
0.9903822,2.9802322e-07,1.2457371e-05,8.6426735e-07,2.9802322e-07,0.00022047758,0.0003502667,5.6028366e-06,0.00015118718,0.009281129
0.00013262033,0.0,3.59118e-05,4.142523e-06,5.9604645e-08,1.385808e-05,0.0006245971,0.99931204,3.257394e-05,0.0003491938
0.0034047663,5.990267e-06,2.2500753e-05,5.38826e-05,6.636977e-05,0.005194992,0.7748767,0.0006173253,0.10950714,0.0010072589
0.0012033582,4.172325e-07,4.595518e-05,1.5765429e-05,4.142523e-06,0.0002039969,0.0006195009,9.000301e-06,0.9989195,0.00010803342
0.9936824,5.9604645e-08,1.1116266e-05,1.3709068e-06,1.7285347e-06,0.0011396706,0.0011987388,1.0937452e-05,0.00029978156,0.0011090934
0.030184746,1.937151e-06,0.0015726388,6.28829e-06,8.970499e-06,0.00070363283,0.004300773,1.7166138e-05,0.8629201,0.020239294
0.95032525,4.172325e-07,1.7374754e-05,4.172325e-07,1.2516975e-06,0.0015310645,0.007846087,3.7550926e-06,0.00015380979,0.009498388
4.044175e-05,9.834766e-07,7.1525574e-06,0.99997723,1.6391277e-06,0.00087171793,0.00565359,0.0,0.0012037754,4.1097403e-05
0.26672122,1.4007092e-06,0.02405256,0.00022020936,0.00010338426,0.00064086914,0.0035858452,6.9111586e-05,0.23623914,0.04947412
0.0033266544,0.56442,0.021193773,0.0001975596,6.517768e-05,0.08586359,0.1582652,7.277727e-05,0.022088975,0.1174227
0.9888667,2.9802322e-08,3.5375357e-05,2.4735928e-06,4.4703484e-07,0.001072526,0.0012568831,4.1127205e-06,0.0020312965,0.00047716498
0.94203115,9.23872e-07,5.2839518e-05,2.503395e-06,9.328127e-06,0.0018489361,0.009909153,0.00073194504,0.0002770126,0.007264346
4.7683716e-07,0.00039839745,1.0073185e-05,0.99999285,0.00010639429,0.02157265,0.16783607,2.0861626e-07,0.0002721548,3.606081e-06
0.99725205,8.940697e-08,2.5331974e-06,6.2584877e-07,2.9802322e-08,0.0002772808,0.0012258589,2.0861626e-07,0.0003606081,0.0005879998
0.000110566616,0.0003399551,0.006842166,0.0004723966,0.00030606985,0.9882452,0.08290547,0.0011278689,0.0029981434,0.025584042
4.172325e-07,0.9984628,0.00059890747,0.0018005371,1.3649464e-05,0.001698643,0.0024398863,8.940697e-08,0.9878028,9.548664e-05
0.992302,5.9604645e-08,8.046627e-06,1.847744e-06,1.7881393e-07,0.0005211234,0.0018572509,2.0861626e-07,0.00071668625,0.0061338544
0.99031544,2.9802322e-08,3.129244e-05,3.221631e-05,1.1622906e-06,0.00048938394,0.0005503893,1.1652708e-05,0.00044938922,0.00040507317
0.026124626,2.8014183e-06,1.5497208e-06,5.2154064e-06,4.1127205e-06,0.0013539791,0.86269176,2.8014183e-05,0.00013908744,0.00035774708
0.0040462315,0.0,1.2516975e-05,5.066395e-07,0.0,8.493662e-06,0.00010347366,0.9982228,1.0281801e-05,0.00027185678
0.008509129,1.0967255e-05,3.3676624e-05,7.5399876e-06,1.7285347e-06,0.9931772,0.07221255,1.463294e-05,0.02712524,0.00081941485
0.00020697713,0.8144816,0.0010163188,0.00054582953,0.0001603663,0.6739375,0.004634887,8.225441e-06,0.28378594,0.011929929
0.9940958,2.9802322e-08,8.940697e-06,6.854534e-07,8.34465e-07,0.0008533895,0.0033035576,1.3709068e-06,0.0001553297,0.0024717748
0.00026270747,1.1622906e-06,0.0001784265,0.045313746,3.1858683e-05,0.00046780705,0.0054321587,3.966689e-05,0.9983522,0.00010281801
0.9883724,0.0,1.0311604e-05,5.185604e-06,5.066395e-07,0.00060105324,0.00041747093,5.3286552e-05,0.0011963248,0.0009931326
7.4505806e-06,2.3841858e-06,6.124377e-05,0.9999956,0.0026652813,0.0007529259,0.001884073,0.0,9.059906e-05,1.4901161e-07
0.019629776,0.00046247244,0.0008868575,0.00024244189,3.1739473e-05,0.9529942,0.1431717,2.5451183e-05,0.001008153,0.0016700923
0.9719119,5.9604645e-08,9.357929e-06,2.9206276e-06,4.827976e-06,0.0007249117,0.00027641654,0.0038911998,2.425909e-05,0.0038501322
3.272295e-05,0.0007903278,0.00035965443,3.796816e-05,0.00021591783,0.0054807663,0.91622025,4.5001507e-06,0.87675464,0.0023151636
0.80053735,3.5762787e-07,7.927418e-05,1.3917685e-05,3.5762787e-06,0.0006441772,0.0010896325,0.00015085936,0.004555851,0.19140702
0.96021926,5.9604645e-08,1.4215708e-05,3.2782555e-07,1.1026859e-06,0.0001617372,0.0005245805,0.0,0.0003784895,0.026547462
0.99468446,8.940697e-08,1.9222498e-05,4.440546e-06,4.708767e-06,0.0005195439,0.0010018945,0.00013801455,0.0001322329,0.00021368265
0.014772892,2.9802322e-07,4.3541193e-05,1.3709068e-06,5.155802e-06,7.376075e-05,0.000651747,1.8775463e-06,0.98823225,0.00041487813
0.13528746,8.940697e-08,4.4554472e-05,1.8507242e-05,1.1920929e-06,0.0002450645,0.00025001168,1.9192696e-05,0.94639087,0.00060641766
0.00033205748,9.030104e-06,0.002269268,0.001380235,0.0013050735,0.00069746375,0.01197201,0.00021484494,0.48178896,0.30683357
0.8374191,5.9604645e-08,4.8547983e-05,6.3180923e-06,3.6656857e-06,0.0013721287,0.0013683736,4.053116e-05,0.19496128,0.0011989176
1.9669533e-05,1.5586615e-05,0.00029838085,0.9993557,4.169345e-05,0.00095424056,0.02975285,2.9802322e-08,0.00064229965,0.00048214197
0.00016155839,1.1444092e-05,0.0010291338,3.4570694e-06,2.4735928e-06,0.0028133094,0.018757015,0.017963707,0.9811176,0.001238972
1.0728836e-06,3.6358833e-06,0.0026078522,0.99999344,5.3226948e-05,0.0010986626,0.0031315088,0.0,0.03646469,1.9967556e-06
1.5497208e-06,8.940697e-08,3.0696392e-06,0.99999887,5.841255e-06,0.00016191602,0.0006566942,0.0,1.3113022e-05,4.172325e-07
0.9910232,5.9604645e-08,7.8082085e-06,1.7881393e-06,4.172325e-07,0.00039711595,0.00048476458,0.0003465414,0.00015377998,0.0010782182
0.21409339,0.0,0.00054603815,1.4215708e-05,0.0020711422,0.0014773309,0.003147453,0.000264287,0.6823884,0.0013807416
0.0,6.0617924e-05,6.198883e-06,0.9896145,0.9991901,0.0010177791,0.9449111,1.1920929e-07,0.000521183,4.976988e-06
0.99567556,0.0,7.3611736e-06,3.33786e-06,8.34465e-07,0.0009112656,0.0010803342,9.596348e-06,7.247925e-05,0.00011000037
0.0018993914,4.8577785e-06,7.170439e-05,1.79708e-05,0.00020331144,0.00020805001,0.0022898018,1.40964985e-05,0.9902823,0.012391925
0.0037001073,1.7285347e-06,0.018357933,0.00054588914,0.00037556887,0.0005712211,0.0059388876,4.8607588e-05,0.9881233,0.0004517138
0.00018179417,2.3841858e-07,0.00010406971,0.00017878413,2.8908253e-05,0.00038051605,0.005515367,2.3156404e-05,0.99932754,7.900596e-05
0.00047910213,0.9775222,0.013231933,0.0017054081,1.898408e-05,0.009182215,0.025656164,1.013279e-06,0.6426552,0.010218799
0.000151366,1.758337e-06,8.422136e-05,0.98839223,0.006651789,0.044546872,0.010787845,3.5762787e-07,0.00060364604,0.0011526048
7.56979e-06,6.3329935e-05,0.99225724,1.3887882e-05,4.2915344e-05,0.99107885,0.014038503,4.082918e-06,0.0039019287,1.6361475e-05
0.34809715,1.2516975e-06,0.00035640597,9.030104e-06,1.3709068e-06,0.81439924,0.01900667,7.44164e-05,9.1165304e-05,0.0039981306
0.0005234182,4.9561262e-05,0.008326173,6.067753e-05,6.651878e-05,0.99997205,0.008307934,2.6643276e-05,0.004905939,0.0002771318
0.97161585,0.0,5.340576e-05,0.00014838576,7.033348e-06,0.00094255805,0.0014210939,0.00022366643,0.0005504489,0.0026618242
0.004651457,3.5762787e-07,9.128451e-05,5.403161e-05,4.4107437e-06,0.0010044575,0.002996564,6.276369e-05,0.99876577,2.3752451e-05
0.0008277595,2.3841858e-07,0.0033313334,6.28829e-06,7.122755e-06,0.00039216876,0.0014775395,2.6792288e-05,0.99657494,1.4394522e-05
0.0038926005,3.2782555e-07,0.00031393766,5.891919e-05,0.00010305643,0.00014027953,0.0019825995,0.0006749034,0.99394083,0.0006915331
0.75209606,1.1920929e-07,8.934736e-05,1.5199184e-06,2.9802322e-07,0.0005465448,0.000979811,3.3289194e-05,0.5938718,0.000385046
0.0012304187,1.7881393e-07,7.033348e-06,1.8775463e-06,3.606081e-06,0.00014606118,0.0005954802,1.0728836e-06,0.9993203,0.0001848638
0.0049565434,0.45586768,0.017144024,0.0018217862,0.00028520823,0.012370527,0.09818694,2.0295382e-05,0.050247908,0.3085214
1.3411045e-06,2.4467707e-05,0.00759089,0.99993515,0.0035010874,0.0007393956,0.0039110184,1.1920929e-07,0.06440309,2.3335218e-05
0.9912865,0.0,7.390976e-06,2.9802322e-07,3.2782555e-07,0.00043308735,0.00034067035,2.95043e-06,0.0040652156,0.00023087859
0.009888321,2.3841858e-07,0.00023764372,5.185604e-06,4.7504902e-05,0.0030015707,0.0011279285,0.00034725666,0.991752,0.00070235133
0.22348282,2.9802322e-08,5.6117773e-05,0.00011110306,5.942583e-05,0.00069865584,0.00088346004,4.827976e-06,0.8181947,4.4882298e-05
4.5895576e-06,0.01773411,0.11270061,0.00083455443,0.00025641918,0.08551118,0.06355998,1.7017126e-05,0.97428024,0.001708895
0.38229758,8.612871e-06,0.15504628,9.834766e-06,1.7344952e-05,0.002777338,0.017032504,0.00038659573,0.004113555,0.014030606
0.43374205,4.9471855e-06,3.644824e-05,2.0742416e-05,6.2286854e-06,0.0010338724,0.0053178966,6.854534e-07,0.0055901706,0.3881008
0.9958544,0.0,1.0281801e-05,6.2584877e-07,1.013279e-06,0.00048455596,0.0004811287,4.887581e-06,0.00012901425,7.5012445e-05
0.96457094,1.7881393e-07,0.00010088086,1.630187e-05,2.503395e-06,0.0010247529,0.0023349226,0.00043591857,0.0009098947,0.013705999
0.98716056,0.0,1.13248825e-05,1.1920929e-07,5.364418e-07,0.0002629459,0.00041526556,0.00011765957,0.0015269816,0.0010698736
0.00016435981,0.022488505,0.92683744,4.053116e-05,0.00029352307,0.048570454,0.13729897,8.830428e-05,0.003019333,0.00037053227
0.025098622,2.5629997e-06,0.0014216304,4.887581e-06,3.3915043e-05,0.00067678094,0.004077941,0.00012919307,0.97375834,0.00046733022
3.3438206e-05,0.9373502,0.16181251,0.18034521,0.00044724345,0.055012316,0.0017802119,4.0352345e-05,0.27400038,0.00014030933
0.9501046,8.940697e-08,2.6017427e-05,2.220273e-05,3.516674e-06,0.0010389984,0.001070112,1.1026859e-06,0.012237936,0.0003490746
0.9278246,5.9604645e-08,3.33786e-05,2.0861626e-06,3.993511e-06,0.0006363988,0.00061771274,2.4199486e-05,0.017193168,0.00590533
1.013279e-06,0.1166735,0.14144361,0.99995124,0.0049264133,0.0007804632,0.05446282,0.0,0.00800401,1.3947487e-05
4.7266483e-05,0.9978497,0.0032820702,0.0001167953,2.8669834e-05,0.016828239,0.0060600042,8.311868e-05,0.42176414,0.0020739138
0.0004632473,7.748604e-07,0.0006749928,7.149577e-05,4.762411e-05,0.00011771917,0.0031668544,1.013279e-06,0.9981984,0.00016605854
0.9974263,5.9604645e-08,1.0579824e-05,8.6426735e-07,5.9604645e-08,0.00047162175,0.001706332,6.2584877e-07,0.00019595027,0.0007325411
8.267164e-05,1.1742115e-05,0.0013938248,0.037228107,0.0006788671,0.00061789155,0.007724941,7.6532364e-05,0.9949023,0.0007250011
0.000549376,5.9604645e-08,0.0011085272,0.00014784932,0.35548794,0.0001874268,0.0015776157,3.287196e-05,0.9954219,5.173683e-05
0.99315,0.0,5.3048134e-06,6.2584877e-07,1.1920929e-07,0.00023561716,0.0003389418,0.0006119609,0.0006711781,0.00023174286
6.0796738e-06,0.00017008185,0.0019241273,0.000102669,0.00071388483,0.9998951,0.03312546,3.4213066e-05,0.84071624,0.00011098385
7.7188015e-06,0.14350617,0.22830462,0.01435858,0.009185612,0.99407744,0.10606632,3.7789345e-05,0.6031364,8.46684e-05
0.006696552,4.172325e-07,4.1663647e-05,0.96593124,1.1026859e-06,0.000344038,0.0009086132,1.2516975e-06,3.0577183e-05,0.000582397
0.9891373,0.0,7.5399876e-05,1.3113022e-06,0.0,0.00029745698,0.0008084476,0.00026279688,0.00027754903,0.00011047721
0.12267041,2.4437904e-06,0.0002193749,4.711747e-05,7.748604e-07,0.000205338,0.0007612705,0.9269912,0.00020521879,0.004352838
0.003939271,2.2053719e-06,0.89612603,0.00015866756,7.1823597e-06,0.00027683377,0.0010910034,0.0001821518,0.47414047,0.00043469667
0.85184383,0.0,1.6361475e-05,4.5001507e-06,5.662441e-07,0.00018557906,0.00026628375,0.12651163,9.6946955e-05,0.0044469833
0.9933237,5.9604645e-08,6.9737434e-06,1.013279e-06,3.6656857e-06,0.0005123317,0.0019677281,7.987022e-06,0.00018152595,0.0017115176
5.662441e-07,0.11451119,0.0023654103,0.9805536,4.8965216e-05,0.0019916892,0.7145488,2.9802322e-07,0.6239286,0.005818635
0.99738866,8.940697e-08,1.5616417e-05,2.8312206e-06,6.2584877e-07,0.0008660555,0.0014874637,2.1755695e-06,3.582239e-05,0.00027945638
0.18547958,1.4901161e-07,8.714199e-05,5.8710575e-06,1.0788441e-05,0.0008302927,0.0013236701,0.0003284812,0.93188393,0.00018668175
0.0042200387,0.00029999018,9.536743e-06,8.225441e-06,2.5331974e-06,0.0070944726,0.9453878,2.682209e-06,0.13069817,0.002657026
0.0,1.2427568e-05,0.0004862845,0.9999943,0.00027516484,0.00044605136,0.013488084,5.9604645e-08,0.0003889501,6.425381e-05
0.9868156,5.9604645e-08,5.671382e-05,3.516674e-06,1.3828278e-05,0.0015478134,0.002761513,4.634261e-05,0.0007261932,0.00025251508
0.998188,2.9802322e-08,3.9041042e-06,6.854534e-07,3.874302e-07,0.00055003166,0.0011415482,5.9604645e-07,2.6673079e-05,0.00047120452
0.0007249415,0.00028666854,0.0013101697,7.683039e-05,1.2129545e-05,0.9980254,0.019462794,2.9236078e-05,0.00091418624,0.056684375
4.887581e-06,4.7683716e-07,0.00020417571,1.5377998e-05,7.349253e-05,0.00024583936,0.004976988,0.0011838973,0.9924017,0.0016094744
1.0609627e-05,5.8978796e-05,5.2899122e-05,0.00053048134,1.001358e-05,0.0010357797,0.75027084,0.00059977174,0.998134,0.00016096234
0.0009393096,7.748604e-07,1.2755394e-05,3.5762787e-06,1.4901161e-06,0.0002953112,0.0016148388,4.1872263e-05,0.9978988,0.00029698014
3.9339066e-05,0.001174897,0.990383,3.7044287e-05,0.00062114,0.024078876,0.06824967,3.6656857e-06,0.36468953,0.00033947825
0.976524,4.172325e-07,1.4066696e-05,6.29127e-05,2.3841858e-07,0.0010155439,0.0011749864,4.6253204e-05,0.0015093386,0.005644202
0.0001475513,0.0,1.1920929e-07,8.940697e-08,0.0,0.0,1.0341406e-05,0.0,8.34465e-07,0.9999944
0.008475095,3.5762787e-07,0.0009842813,0.0005798936,0.9933426,0.00027292967,0.005816996,1.6391277e-06,5.4061413e-05,7.870793e-05
0.96357495,2.682209e-07,1.9699335e-05,2.0861626e-07,1.7881393e-07,0.00042301416,0.00070759654,6.854534e-07,0.0023665428,0.064885885
0.034748435,4.887581e-06,0.00030711293,0.00024059415,0.0003707409,0.0023858845,0.017349988,0.0004892945,0.011396676,0.34462777
0.99568784,0.0,1.7493963e-05,2.3841858e-07,1.1920929e-07,0.00072419643,0.00033056736,2.3841858e-07,0.00262174,0.00028064847
1.0222197e-05,0.0,0.0016614199,7.0393085e-05,2.348423e-05,3.4868717e-05,6.470084e-05,3.2782555e-07,0.000116705894,0.99995315
0.00010192394,6.2584877e-07,0.00069209933,1.552701e-05,2.4557114e-05,0.00067040324,0.004348129,0.0007338226,0.9492457,0.0029117763
0.18578786,7.1525574e-07,0.0004938543,0.0022666156,2.0802021e-05,0.003599435,0.004270375,4.413724e-05,0.5476614,0.0017588437
0.980238,0.0,8.761883e-06,6.508827e-05,7.122755e-06,0.0022079647,0.0012662709,3.606081e-06,0.001122266,0.0005211532
0.0001539886,4.0739775e-05,3.0398369e-06,0.00010615587,1.9431114e-05,0.014139235,0.9898183,6.0647726e-05,0.0032414198,0.00034549832
1.8775463e-06,6.8217516e-05,0.0020668507,0.0010067225,8.234382e-05,0.99999744,0.0051270425,1.7166138e-05,0.024178535,0.0006645322
0.00029280782,7.897615e-06,7.510185e-05,0.99734545,8.696318e-05,0.002256155,0.036001414,2.9802322e-08,0.00031721592,0.0004621148
0.97708356,5.9604645e-08,6.642938e-05,1.013279e-06,2.5629997e-06,0.0023452938,0.0058398247,0.00013405085,0.00018408895,0.010628909
5.4478645e-05,1.3709068e-06,1.0758638e-05,0.9999782,4.7683716e-07,0.00049963593,0.001152277,0.0,0.00024202466,2.798438e-05
2.3841858e-07,0.90378654,0.011134595,0.99974203,9.8496675e-05,0.0032923222,0.008515656,1.4901161e-07,0.036018908,7.05719e-05
0.9851351,0.0,5.3942204e-06,1.4305115e-06,1.6391277e-06,0.00025749207,0.00067827106,0.00023517013,5.325675e-05,0.006348312
2.4676323e-05,5.1230192e-05,0.0045110583,0.0009974539,0.025523126,0.99963146,0.014368832,0.0032972395,0.0002681315,3.4421682e-05
6.020069e-06,0.0,8.940697e-06,0.9999952,1.1920929e-06,0.00019595027,0.00081935525,0.0,1.1771917e-05,5.662441e-07
0.0053438544,1.1026859e-06,9.7960234e-05,1.0848045e-05,9.378791e-05,0.00038850307,0.002335161,0.00081306696,0.99773383,0.000120162964
0.00024536252,4.4703484e-06,7.4505806e-06,0.996657,7.328391e-05,0.0020804703,0.0025658906,5.066395e-07,0.004451871,3.966689e-05
0.000113636255,4.4882298e-05,0.007613182,2.321601e-05,5.942583e-05,8.311868e-05,0.0042156875,1.1920929e-07,0.0055315197,0.9464139
3.4570694e-06,8.940697e-08,3.874302e-07,0.99999774,0.0,5.6803226e-05,0.00044965744,0.0,1.1622906e-06,2.0861626e-07
0.041929394,0.00060871243,0.00033044815,1.4811754e-05,6.377697e-06,0.028758585,0.6921396,0.0006965697,0.5910081,0.0034708977
0.99018407,2.9802322e-08,5.888939e-05,1.9669533e-06,2.7120113e-06,0.00069722533,0.00095513463,8.2701445e-05,0.00013366342,0.0002040863
0.99579906,0.0,6.735325e-06,1.2516975e-06,4.4703484e-07,0.0005553067,0.0007865131,2.1070242e-05,3.1739473e-05,9.9658966e-05
0.32144803,0.0,0.0007106364,8.928776e-05,1.3530254e-05,0.00018277764,0.0018933713,0.25660414,0.045980662,0.00020885468
0.026937813,6.723404e-05,0.000119805336,0.0011257231,3.4570694e-06,0.003649056,0.455584,0.18820992,1.2457371e-05,0.0002605021
2.3841858e-07,2.503395e-06,3.0577183e-05,0.99998224,6.258488e-05,0.0005200207,0.015777111,0.0,0.78200394,3.1888485e-06
0.0004925728,0.023997247,0.004959464,0.00050097704,0.00070020556,0.31602275,0.09167436,2.336502e-05,0.4545452,0.042373717
0.12482631,7.1525574e-07,7.766485e-05,0.00014007092,5.185604e-05,0.00062158704,0.0021449327,1.0877848e-05,0.78920954,0.024353117
2.413988e-06,0.00038823485,0.44154972,0.000520885,0.000115692616,0.0008235574,0.69637924,1.2904406e-05,0.97531027,0.00051259995
0.5119708,0.0,1.564622e-05,2.9802322e-07,4.172325e-07,6.8724155e-05,0.00013759732,0.8583951,6.4343214e-05,0.0002220869
0.0033962429,4.053116e-06,0.0012412965,0.00013145804,0.00025734305,0.0004016161,0.0057471693,1.3560057e-05,0.98739946,0.0026059449
0.9668921,0.0,0.00012919307,7.4505806e-06,3.9041042e-06,0.00052568316,0.0009754598,0.0044423044,8.6307526e-05,0.002305299
0.9897893,2.682209e-07,3.156066e-05,7.748604e-07,6.854534e-07,0.0011295378,0.0016040206,1.937151e-06,0.0027970672,0.0034736693
0.0018704534,2.682209e-07,0.99599457,2.2351742e-06,1.4543533e-05,0.0010429025,0.0013133883,4.5597553e-06,0.034787774,2.8163195e-05
0.9951018,0.0,4.440546e-06,7.748604e-07,3.874302e-07,0.0005494654,0.00032290816,3.0755997e-05,0.00034701824,0.00050640106
1.1086464e-05,8.34465e-07,0.00015762448,0.00013148785,1.1861324e-05,0.00020584464,0.0025439858,0.00060510635,0.9992133,0.0018604398
0.21882337,3.2782555e-07,5.480647e-05,9.298325e-06,4.5895576e-06,0.0009242892,0.0023176074,1.0073185e-05,0.77868265,0.00084513426
0.98364115,1.1920929e-07,2.8133392e-05,9.030104e-06,1.3828278e-05,0.0024186373,0.0031502843,6.0796738e-06,0.00025179982,0.00033691525
0.03486806,6.2584877e-07,6.976724e-05,2.1755695e-06,4.3094158e-05,0.00024232268,0.0011848211,4.172325e-07,0.9528833,0.0038178563
0.05286327,2.0861626e-07,0.00019708276,3.1292439e-06,3.7759542e-05,0.0002950728,0.0023211539,1.579523e-05,0.95741284,0.0006150007
1.6093254e-06,1.6093254e-06,0.9978682,0.0004107356,0.003982842,0.0014950931,0.011064857,0.00017926097,0.034667373,0.009706736
0.005631417,2.503395e-06,0.0006956756,0.00036752224,0.116815925,0.002973944,0.022314638,1.40964985e-05,0.9066029,0.00014594197
0.000911206,0.00045886636,0.006199181,0.0045534074,0.57011664,0.0025865734,0.1450932,3.5375357e-05,0.0926404,0.0926733
0.1685383,2.3841858e-07,3.8266182e-05,1.8775463e-06,5.751848e-06,0.0002117157,0.0011478066,2.682209e-07,0.9234884,0.00040352345
0.0010392666,1.1920929e-07,2.8163195e-05,8.761883e-06,8.314848e-06,0.00018915534,0.0006560683,1.847744e-06,0.9994911,7.477403e-05
0.994872,5.9604645e-08,6.020069e-06,9.536743e-07,1.7881393e-06,0.00047928095,0.0016587675,3.9339066e-06,0.00018170476,0.00031259656
0.0145792365,1.8179417e-06,2.9414892e-05,1.2665987e-05,3.2275915e-05,0.00023549795,0.0038739443,5.3346157e-06,0.98202884,0.0014010966
1.0728836e-06,0.0005018413,0.16451609,0.00038290024,0.0010677874,0.9963284,0.023376256,0.00015246868,0.96449757,5.054474e-05
0.54788136,1.4901161e-07,2.771616e-06,1.1473894e-05,1.4007092e-06,0.00078991055,0.0016824603,1.347065e-05,0.8036887,0.00019046664
0.8635098,1.7881393e-07,7.4207783e-06,1.4483929e-05,5.9604645e-08,0.0006324053,0.00045654178,3.7908554e-05,0.14068687,0.0006519854
0.98945725,0.0,2.193451e-05,5.6922436e-06,1.1622906e-06,0.0009972453,0.0015697181,2.4437904e-06,0.0008639097,0.0015778542
0.0005892813,1.4901161e-07,0.00010487437,9.298325e-06,1.6659498e-05,0.00029316545,0.0016455352,2.6255846e-05,0.9990883,0.00017797947
0.0012128651,5.9604645e-08,0.9995665,2.1457672e-06,6.556511e-06,0.0010649264,0.0026176572,4.082918e-06,0.00017079711,4.938245e-05
0.9874599,1.1920929e-07,2.3901463e-05,8.046627e-06,1.5377998e-05,0.0026510358,0.0028267503,1.7285347e-06,0.00012648106,0.00026860833
0.9452547,8.940697e-08,0.0001322031,1.9073486e-06,5.364418e-06,0.002015829,0.0020985305,2.6524067e-05,0.0030225217,0.0046877563
0.9812257,0.0,2.7418137e-06,3.5762787e-07,1.013279e-06,9.11057e-05,0.00014218688,0.005878359,9.715557e-06,0.0018472075
1.3411045e-06,0.016739726,0.8552588,0.00063714385,0.0006759763,0.9616815,0.039554566,8.046627e-06,0.97676396,3.5136938e-05
0.9843904,2.9802322e-08,0.00010356307,2.0861626e-06,1.8179417e-06,0.0008979142,0.00093078613,8.651614e-05,0.0027734041,0.00069749355
1.2218952e-05,0.9856353,0.0009791553,0.00036618114,3.516674e-06,0.026947975,0.008839548,8.6426735e-07,0.9817091,0.0011464357
0.0003940165,0.9908618,0.0036869943,0.00018817186,8.043647e-05,0.10415062,0.00461334,0.00017356873,0.06558898,0.013670146
0.45733088,2.3841858e-07,1.3202429e-05,3.3020973e-05,3.2782555e-06,0.001264751,0.0011531711,1.5676022e-05,0.59943557,0.0022720993
4.172325e-07,4.4703484e-07,6.0617924e-05,0.99994695,0.79587233,0.00011885166,0.0009982288,0.0,0.00039985776,5.9604645e-07
0.87217605,2.9802322e-08,0.0005657971,4.2915344e-06,1.5199184e-06,0.0009794235,0.0009123087,4.9978495e-05,0.25357842,0.0003720522
0.033291996,1.7881393e-07,5.3167343e-05,1.052022e-05,1.66893e-06,0.0002643466,0.0029784143,1.5795231e-06,0.98379594,0.000238657
0.01250568,0.00018316507,1.9580126e-05,4.4703484e-06,1.1026859e-06,0.0038632154,0.9716552,0.0013205707,0.004865229,0.0003593266
2.8908253e-06,1.7881393e-07,1.9967556e-06,0.9999988,1.9669533e-06,0.00015559793,0.0012398064,0.0,1.591444e-05,1.2516975e-06
0.00015562773,4.0650368e-05,2.5629997e-06,0.00020244718,1.0639429e-05,0.012515247,0.9838806,3.656745e-05,0.0031098723,0.0010202825
0.9449885,0.0,5.635619e-05,9.834766e-07,2.4437904e-06,0.00057560205,0.00025069714,8.2194805e-05,0.14304644,0.000857532
0.9317863,2.9802322e-08,0.00017938018,4.351139e-06,3.1888485e-06,0.00038966537,0.00073343515,0.03748262,4.711747e-05,0.00020608306
1.6987324e-06,9.089708e-06,0.00085666776,0.0014016628,0.0027370453,0.999718,0.01914522,0.000156492,0.0007068813,0.0066916347
0.00029346347,4.2915344e-06,1.7136335e-05,7.212162e-06,4.708767e-06,0.000105947256,0.00029999018,1.31726265e-05,0.9981581,0.00056633353
3.4570694e-06,0.00020885468,0.48331395,0.94351786,0.00025629997,0.00087189674,0.02279228,5.9604645e-08,0.9572959,3.6746264e-05
0.24448365,7.1525574e-07,1.7136335e-05,3.1501055e-05,4.0233135e-06,0.00023338199,0.0007019043,5.9604645e-07,0.50636154,0.13229254
8.046627e-05,0.15778896,0.0007852912,0.0015104711,0.00023820996,0.013910651,0.82438946,4.0233135e-06,0.91483307,0.015797764
0.9848358,0.0,6.16312e-05,3.516674e-06,4.053116e-06,0.001210928,0.0011972487,7.05719e-05,2.130866e-05,0.0010950267
0.9590052,0.0,4.0858984e-05,0.00016468763,2.771616e-06,0.0004544258,0.00076159835,0.0034168959,0.00010102987,0.0006724596
1.2516975e-06,1.7881393e-07,3.963709e-06,0.9999995,4.261732e-06,0.00045788288,0.0012672246,0.0,4.3302774e-05,4.7683716e-07
0.9928366,2.9802322e-08,3.7550926e-06,8.046627e-07,8.34465e-07,0.00082969666,0.0015878975,0.000120937824,5.6266785e-05,0.00031146407
0.05168405,7.554889e-05,0.004393816,1.6987324e-05,1.4215708e-05,0.0019414723,0.023279995,3.71933e-05,0.38697526,0.18172699
0.107185185,2.3841858e-07,0.00012394786,3.120303e-05,3.3974648e-06,0.00075897574,0.000865221,0.94300175,0.017943889,0.0007840693
5.4508448e-05,9.834766e-07,5.0842762e-05,5.5462122e-05,3.6358833e-06,9.280443e-05,0.001412034,4.8607588e-05,0.99985766,2.503395e-05
2.3782253e-05,8.940697e-08,1.5497208e-06,0.99999416,1.1920929e-07,0.00014865398,0.000569731,0.0,7.1942806e-05,1.013279e-06
0.00016647577,0.9123179,0.016681641,0.005648643,0.6095422,0.009402126,0.05818841,1.0728836e-06,0.0043572783,0.00028434396
7.390976e-06,1.2367964e-05,0.0028916001,0.0009892881,0.00016832352,0.0020050108,0.01949802,0.00030586123,0.06791806,0.87438965
2.6166439e-05,4.7683716e-07,3.6478043e-05,0.99998665,0.0020214915,0.0008263886,0.0015471578,8.940697e-08,0.0003232956,1.1593103e-05
1.5854836e-05,1.0430813e-06,4.1395426e-05,0.99999255,2.8312206e-06,0.001783818,0.003986895,0.0,0.0014086664,1.4603138e-05
0.02220279,2.4735928e-06,4.157424e-05,1.7285347e-06,6.2584877e-07,0.00020572543,0.002208352,5.841255e-06,0.984283,0.00024107099
0.97043157,2.9802322e-08,1.257658e-05,1.6987324e-06,2.7418137e-06,0.0010067523,0.0017012656,1.2218952e-06,0.054334342,0.0005146563
0.9932709,2.9802322e-08,1.0251999e-05,5.066395e-07,5.364418e-07,0.00043174624,0.00052779913,0.0004594922,7.2181225e-05,0.00032514334
0.00035703182,0.00021418929,0.00016576052,0.0022318363,4.0620565e-05,0.002661109,0.96113217,0.018152446,0.00029489398,0.016753137
0.080599844,9.23872e-07,0.001706034,0.00020870566,4.3720007e-05,0.00046798587,0.0022448003,1.707673e-05,0.7677032,0.007711768
0.9926056,0.0,1.6987324e-06,4.172325e-07,6.2584877e-07,0.0003273189,0.00022912025,2.682209e-07,0.00012606382,0.009539425
0.98575985,1.1920929e-07,4.0084124e-05,1.707673e-05,3.132224e-05,0.0017510056,0.0015028119,4.4375658e-05,7.4118376e-05,0.0036512017
6.3180923e-06,2.682209e-07,0.0007932186,0.00015068054,4.351139e-06,0.00019493699,0.0018787384,0.98983586,0.0020605624,0.013737798
0.9768652,2.3841858e-07,0.00022318959,5.990267e-06,1.7881393e-06,0.0013398528,0.0038990974,0.000113636255,0.0005940199,0.0012722015
0.20668513,0.0,7.122755e-06,3.2782555e-06,2.0861626e-07,0.00011250377,0.00021249056,0.9498248,3.0428171e-05,0.00053307414
2.592802e-06,2.3841858e-07,0.99637777,3.361702e-05,0.00010535121,0.0002503395,0.0022863746,7.122755e-06,0.9959928,5.096197e-06
0.00012770295,0.0,0.9995496,1.847744e-06,0.00029602647,0.0006635785,0.0016407967,3.07858e-05,0.09327191,2.6226044e-05
0.9236898,2.0861626e-07,0.0047606826,2.6166439e-05,3.33786e-05,0.00075539947,0.00076800585,0.00043198466,2.104044e-05,0.0010783672
4.172325e-06,4.9620867e-05,0.0035629869,0.00040569901,9.420514e-05,0.99999845,0.0039407313,6.145239e-05,0.0027691722,0.00011780858
0.12404364,1.1324883e-06,0.00021511316,1.2785196e-05,1.1920929e-07,7.0780516e-05,0.00020089746,0.002043724,3.5345554e-05,0.8237151
0.9600782,1.1920929e-07,9.7960234e-05,1.013279e-06,3.695488e-06,0.0028072596,0.001326859,0.0081860125,0.0018670559,0.002563268
0.000323236,0.0016157925,0.8015487,0.007899523,0.008900911,0.0044528246,0.021059692,1.6391277e-06,0.040403903,0.082962304
1.7464161e-05,1.937151e-05,0.94507873,0.027860463,0.012724876,0.011985183,0.044896066,0.17177239,0.0007908344,0.012542605
5.9604645e-08,0.122505635,0.00014927983,0.99998105,0.04218304,0.0060005784,0.34919715,0.0,0.011945397,3.054738e-05
5.9604645e-08,5.155802e-06,0.0008369088,0.99996686,0.00015509129,7.44164e-05,0.0018280745,0.0,0.0056265593,0.00013870001
1.3589859e-05,0.3407547,3.287196e-05,0.071493685,5.9604645e-08,0.0005169511,0.0010546744,4.7057867e-05,0.023213267,0.0023713708
1.8715858e-05,4.9710274e-05,0.8796896,0.9895337,2.7418137e-06,0.0064489245,0.0048309863,4.172325e-07,0.00063687563,0.00011613965
0.98302305,2.0861626e-07,0.00022372603,5.930662e-06,9.23872e-07,0.0010273159,0.003120631,0.000102609396,0.0001321435,0.000508368
0.0045076907,0.0,1.8924475e-05,3.1471252e-05,0.9645655,0.00040873885,0.0013536811,7.1525574e-07,0.027023792,2.1159649e-05
2.4914742e-05,0.47752774,0.0015857518,0.0016091168,0.00017699599,0.0040799975,0.0397411,1.6391277e-06,0.99269897,0.00090557337
0.0021035075,8.34465e-07,3.4838915e-05,7.95722e-06,2.2649765e-06,0.0001514852,0.00094255805,7.3611736e-06,0.9974282,0.00026226044
0.97179246,1.7881393e-07,0.00011250377,0.00012978911,5.990267e-06,0.0005145371,0.0013653934,0.0021095574,1.8894672e-05,0.0029230416
0.98671746,2.9802322e-07,6.476045e-05,4.5895576e-06,1.9669533e-06,0.0012154281,0.0009867251,3.5762787e-07,0.0012359321,0.004189372
4.172325e-07,0.0001513362,0.00026646256,0.99990267,0.00053036213,0.0005039573,0.0070984066,0.0,0.9783576,8.6426735e-07
0.80386955,1.7881393e-07,0.00015154481,2.6255846e-05,2.2947788e-06,0.0013399422,0.0043918192,1.3053417e-05,0.36231786,0.009957492
0.0002733469,4.5895576e-06,0.9976436,0.0075847805,0.0005632639,0.005584389,0.0108940005,0.00018686056,8.356571e-05,5.1021576e-05
0.00033041835,3.2305717e-05,0.9926452,0.0002449751,0.00016650558,0.005692929,0.003880024,1.4305115e-06,0.21303695,0.00016242266
0.88813394,2.9802322e-08,0.00026634336,8.6426735e-06,3.2484531e-06,0.00096300244,0.0009288192,7.8082085e-06,0.04108146,0.00083333254
0.007979035,7.4505806e-07,0.0019212067,1.2218952e-06,7.927418e-06,0.00043290854,0.0012043715,0.00010082126,0.9938561,0.00029847026
0.038598478,0.00052812696,0.88713557,5.930662e-06,0.00012260675,0.012691319,0.09059325,5.567074e-05,0.0011238456,0.0004106462
7.799268e-05,0.9968346,0.0014180243,0.0058157444,0.00019487739,0.011649817,0.005495101,4.7683716e-07,0.2879927,0.016954929
0.9829694,1.1920929e-07,9.319186e-05,5.185604e-06,2.413988e-06,0.0016167164,0.0020581782,2.643466e-05,0.0010526478,0.0012592077
0.99298763,8.940697e-08,1.3649464e-05,8.076429e-06,1.1920929e-07,0.0008594692,0.0015883446,1.4603138e-06,0.00027382374,0.00094667077
0.026399404,1.5199184e-06,0.56001174,1.49309635e-05,0.00064620376,0.0019402504,0.0075722337,4.0620565e-05,0.25295877,0.0010044575
1.6093254e-06,2.9206276e-06,2.503395e-05,0.99999344,4.7773123e-05,0.0008431375,0.0026776493,0.0,0.14382342,4.2021275e-06
0.28760785,1.7881393e-07,0.000107467175,1.3411045e-06,1.1920929e-07,0.00041267276,0.0010225475,1.7344952e-05,0.8445554,0.00049337745
0.11576626,2.682209e-07,6.8724155e-05,1.5795231e-06,5.8710575e-06,0.0012115538,0.001856327,0.00046402216,0.9327588,0.00037938356
0.00013229251,0.9990295,0.0019250512,0.0007676184,2.9444695e-05,0.019405305,0.0038674474,1.9073486e-06,0.2589508,0.0025307238
1.6987324e-06,2.3841858e-07,1.2069941e-05,0.99999166,1.0728836e-06,0.00031894445,0.0015892386,0.0,0.00014841557,1.3887882e-05
0.99371266,0.0,1.54078e-05,3.5762787e-07,1.4901161e-07,0.00010731816,0.00018796325,7.233024e-05,2.7000904e-05,0.00046363473
0.99148285,8.940697e-08,2.4467707e-05,1.847744e-06,9.834766e-07,0.0007098317,0.0012183189,0.00010383129,0.0001719594,0.000377357
0.99324024,0.0,9.506941e-06,2.026558e-06,2.8908253e-06,0.0015155971,0.0011262596,3.0010939e-05,1.0460615e-05,0.0004924834
0.015204549,1.513958e-05,5.352497e-05,0.00016981363,2.771616e-06,0.000918895,0.011942863,5.7816505e-06,0.030399978,0.7230074
2.4110079e-05,0.9818589,0.0012061894,0.0013953149,3.4570694e-05,0.002708733,0.006124437,2.3543835e-06,0.98230505,0.0007150471
2.6375055e-05,0.00082337856,0.0072787106,0.000119030476,0.00015896559,0.99996424,0.022851795,0.00010985136,0.209351,0.000462085
0.9964272,0.0,4.3809414e-06,2.3841858e-07,2.0861626e-07,0.00066778064,0.0007006228,1.4901161e-07,0.00084525347,0.00013333559
1.513958e-05,0.001011759,0.915513,0.0009711981,0.0030212104,0.009030968,0.3163688,0.00012227893,0.015349895,0.043244988
0.117486805,3.3676624e-06,0.002832085,0.00015446544,0.000102728605,0.0013494492,0.003488928,0.009480804,0.0022010803,0.5019196
2.9742718e-05,5.364418e-07,0.034053177,0.00017523766,0.9382452,0.00023809075,0.0043667257,1.013279e-05,0.99389243,2.2470951e-05
0.0033020675,0.00012519956,0.005449325,4.1633844e-05,5.4240227e-06,0.9996929,0.020890325,5.9068203e-05,0.008620709,0.00035309792
0.93728626,6.2584877e-07,7.236004e-05,2.5421381e-05,1.6957521e-05,0.0018462837,0.0031957924,2.2053719e-06,0.038864434,0.002664119
0.8493786,1.2218952e-06,1.3202429e-05,2.9802322e-07,2.682209e-07,0.00028392673,0.00063568354,2.8312206e-06,7.6293945e-05,0.47530788
0.001563251,0.98527074,0.006259173,0.0027671754,1.5556812e-05,0.014854997,0.010802269,1.2516975e-06,0.0129413605,0.0131993
0.98347175,2.9802322e-08,8.493662e-06,7.599592e-06,1.3411045e-05,0.0019809008,0.005743891,4.4345856e-05,9.1433525e-05,7.173419e-05
0.0040548146,5.662441e-07,0.0008148551,6.3180923e-06,5.5640936e-05,0.00024965405,0.0020974874,4.890561e-05,0.9904175,0.00034198165
9.0390444e-05,0.00029349327,0.0038086176,4.6104193e-05,4.61936e-05,0.011455357,0.55643576,0.00015306473,0.6501876,0.0056444407
0.9961975,0.0,6.0796738e-06,8.34465e-07,1.3411045e-06,0.00028127432,0.00043448806,4.440546e-06,9.4652176e-05,4.8041344e-05
0.0014591217,8.7827444e-05,0.00595212,2.7358532e-05,4.529953e-05,0.99988997,0.0046628118,5.888939e-05,0.11275673,0.0001206398
0.02778235,2.9802322e-07,0.98258847,6.556511e-07,2.0802021e-05,0.00091150403,0.002496481,0.0022055805,5.7667494e-05,0.0002939701
3.3974648e-06,4.7683716e-07,1.4483929e-05,0.9999974,1.013279e-06,0.0009150803,0.0047837496,0.0,0.001159817,2.503395e-06
0.018602759,2.682209e-06,0.0013640225,0.0007197261,3.427267e-06,0.00031363964,0.0035437644,0.0044752657,0.0019626021,0.943249
0.67619735,5.9604645e-08,7.0929527e-06,5.096197e-06,3.0994415e-06,0.00048583746,0.00068056583,1.3113022e-06,0.76240116,0.00023841858
0.034986615,7.209182e-05,2.0205975e-05,6.6280365e-05,0.00018680096,0.0028908253,0.72020024,1.0579824e-05,0.00026765466,0.012414128
0.033983827,8.940697e-08,1.8000603e-05,1.3411045e-06,1.6659498e-05,0.00033393502,0.0008793771,2.5600195e-05,0.98877925,4.9501657e-05
9.164214e-05,0.993189,0.0038848817,0.0015889108,0.00035393238,0.008736759,0.004153669,1.1026859e-06,0.04020664,0.013426214
0.99600387,0.0,6.3478947e-06,6.6161156e-06,2.3841858e-07,0.0011419654,0.0006376505,5.364418e-07,0.0001848042,0.0002786517
0.29866335,7.048249e-05,0.00013551116,5.7190657e-05,5.155802e-06,0.0003478825,0.0017957091,3.874302e-07,0.36730263,0.09887913
0.9656719,1.7881393e-07,1.4811754e-05,4.6491623e-06,2.9802322e-07,0.0022896528,0.0030327737,0.00032910705,0.00071439147,0.008962899
0.5199496,1.9669533e-06,0.72280127,1.4007092e-06,0.00012895465,0.0021819472,0.010513097,0.00021961331,5.5372715e-05,0.00080913305
0.9571655,1.1920929e-07,2.7567148e-05,7.8082085e-06,0.0012680292,0.0014657676,0.0023860633,8.583069e-06,0.00015458465,0.006131232
0.99040973,0.0,2.5480986e-05,2.3245811e-06,2.592802e-06,0.00034037232,0.0006643832,0.0016447902,2.18153e-05,0.00016084313
0.005436182,0.000100404024,0.00025579333,0.015393019,0.0030125082,0.012572169,0.73901737,0.0014998913,0.00016096234,0.15442604
0.40622354,5.662441e-07,0.7821387,2.5331974e-06,2.9474497e-05,0.000600487,0.0028612316,0.0003761053,0.00036135316,0.00066286325
0.9565195,0.0,1.4513731e-05,3.2782555e-07,1.4901161e-07,9.378791e-05,0.00017130375,0.052956223,3.2186508e-06,2.4348497e-05
1.1920929e-07,3.5971403e-05,0.0006018877,7.072091e-05,5.6922436e-06,0.99996763,0.0076889396,3.1501055e-05,0.9730737,6.2584877e-07
5.066395e-07,3.5762787e-07,6.9886446e-05,0.9999993,2.3901463e-05,0.00020068884,0.0009926856,0.0,9.387732e-06,3.3676624e-06
0.06574765,8.6426735e-07,3.6537647e-05,1.1831522e-05,2.5361776e-05,0.001098454,0.0039712787,9.447336e-06,0.9646659,0.0014120042
0.9927538,8.940697e-08,1.2099743e-05,2.8312206e-06,8.34465e-07,0.0010278225,0.001899302,2.6226044e-06,0.00036498904,0.0015572011
9.158254e-05,4.7683716e-07,0.99302995,0.00015306473,0.012481064,0.001987815,0.006381631,5.662441e-07,0.00013780594,0.00013771653
5.9604645e-08,0.0013544261,0.82823527,0.99929714,0.00025373697,0.011903703,0.33341873,2.9802322e-08,0.0007433593,6.467104e-06
0.9873097,0.0,6.0796738e-06,8.940697e-08,1.013279e-06,0.00046658516,0.00033390522,3.874302e-07,0.0035154223,0.013682097
0.0014316738,2.413988e-06,0.07863146,5.1409006e-05,5.13196e-05,9.75728e-05,0.0020989776,0.006896168,0.9899728,0.00064247847
0.00026509166,4.1931868e-05,3.2186508e-06,1.0699034e-05,9.536743e-07,0.023335278,0.99076277,8.761883e-06,0.00043454766,0.0004247427
0.0001591444,5.096197e-06,0.9765619,0.0013381541,0.0009810925,0.00089889765,0.013627201,6.5863132e-06,0.33392128,0.0043053925
0.010848463,0.0,0.00020843744,1.1920929e-06,6.8843365e-06,0.00019943714,0.0006439388,4.7415495e-05,0.9908004,4.5120716e-05
7.897615e-06,0.6364814,0.07830867,0.012242287,0.06439197,0.9776083,0.059490472,0.00012692809,0.1857101,0.0015957952
1.758337e-06,9.4771385e-06,7.3730946e-05,0.9998126,0.0015826523,0.00048398972,0.08549896,0.0,4.6789646e-05,5.90086e-05
1.1920929e-07,0.9954339,0.0071980357,0.9999361,0.0006967187,0.016738623,0.028078109,5.9604645e-08,0.01576379,3.9428473e-05
0.6454675,2.026558e-06,0.0008634329,7.337332e-05,8.5532665e-06,0.0059672,0.0064748824,0.009280622,0.27036023,0.00095558167
0.00081023574,0.000105679035,0.0062876344,0.00012856722,0.00013545156,0.99945474,0.005608976,0.004806429,0.019696504,0.00073593855
0.9845574,2.9802322e-08,8.928776e-05,3.4570694e-06,2.413988e-06,0.00057151914,0.00071683526,0.00010958314,0.0010257363,0.003514111
2.0086765e-05,0.00809145,0.959326,0.0036751926,0.059349597,0.98298883,0.013953239,0.00904426,0.049701363,0.0013236105
0.039797693,2.3841858e-07,0.00010243058,5.6922436e-06,3.5762787e-07,0.0014477968,0.001627922,0.0035812259,0.96747553,4.005432e-05
2.682209e-07,7.748604e-07,9.0777874e-05,0.9999666,0.10793847,0.00036799908,0.008708745,2.0861626e-07,0.00012928247,5.221367e-05
0.001440376,3.4570694e-06,3.412366e-05,2.3573637e-05,2.0176172e-05,0.0003604889,0.0017846227,5.364418e-06,0.9985268,0.00010931492
0.9733639,5.9604645e-08,3.299117e-05,2.7000904e-05,3.1292439e-06,0.0004554987,0.0004400313,2.297759e-05,0.0008483827,0.00084236264
1.6242266e-05,7.748604e-07,1.4483929e-05,0.9999811,2.7447939e-05,0.00061279535,0.0015624166,0.0,0.0070595443,3.877282e-05
0.9176351,1.1920929e-07,5.64456e-05,6.881356e-05,5.9604645e-06,0.0031909943,0.0026517808,5.7816505e-06,0.028446048,0.005316198
0.00054976344,0.0,5.9604645e-08,1.1920929e-07,0.0,8.940697e-08,9.834766e-06,0.0,4.4107437e-06,0.9998771
8.940697e-08,0.00021967292,8.34465e-07,0.99998015,1.2516975e-06,0.0007084012,0.973807,8.940697e-08,3.3587217e-05,2.6226044e-06
7.4505806e-06,1.4424324e-05,0.0006290376,0.0028325021,0.04109341,0.99998844,0.008069366,0.00027155876,0.00033155084,0.0001860559
0.9903611,5.9604645e-08,2.2768974e-05,3.3080578e-06,7.480383e-06,0.004172027,0.0013236701,5.5283308e-05,2.9474497e-05,0.0029318333
0.00013646483,0.0,1.1920929e-07,1.4901161e-07,0.0,2.9802322e-07,5.2452087e-06,0.0,3.0398369e-06,0.9998606
0.05949676,6.854534e-07,0.00086197257,5.6922436e-06,3.5852194e-05,0.00029212236,0.0049193203,0.00013682246,0.9330471,0.0013191402
0.0075108707,2.3841858e-07,5.453825e-06,1.1354685e-05,7.8082085e-06,9.536743e-05,0.0015651286,2.682209e-07,0.9954564,0.000346452
0.22544354,5.9604645e-08,2.065301e-05,1.1622906e-06,1.4901161e-07,8.431077e-05,0.00019058585,3.427267e-06,0.88506025,0.00047269464
0.013103902,0.0007972419,0.00012138486,4.4882298e-05,5.5134296e-05,0.025824904,0.8255104,0.00015243888,0.0016362965,0.0012857914
0.12676084,0.0,0.00019305944,2.6732683e-05,4.6283007e-05,0.002321899,0.007331878,0.5910984,0.0009531975,0.027274638
0.08889714,1.3887882e-05,0.47594845,3.33786e-06,3.1888485e-06,0.00062033534,0.0004386902,0.00028702617,0.00014385581,0.011069715
0.0020914078,5.9604645e-08,8.404255e-06,1.6778708e-05,1.4007092e-06,0.00017827749,0.0010046363,4.887581e-06,0.99834657,5.272031e-05
0.00029674172,0.97666174,0.001127243,0.00015887618,1.937151e-06,0.003925383,0.068451256,2.4914742e-05,0.001387775,0.0024210215
5.096197e-06,0.00049871206,0.010489643,0.99931335,0.0282211,0.00022494793,0.0025298,0.0,0.122225046,0.001959294
0.004172027,0.0019158721,0.0006480217,0.0006928742,6.9737434e-06,0.0003039837,0.0014390945,0.0,0.016479105,0.6381709
0.06585705,0.0,4.3809414e-05,5.9604645e-07,1.7881393e-07,1.7017126e-05,0.00011590123,0.9946145,8.374453e-06,8.049607e-05
2.0861626e-07,3.4570694e-06,7.048249e-05,0.99999666,0.0018143356,0.0005967617,0.008959115,0.0,0.09615782,3.6358833e-06
0.92602485,2.0861626e-07,8.234382e-05,1.1026859e-06,1.3709068e-06,0.0009094775,0.0014188588,0.0005527139,0.053873807,0.0006122589
0.98362494,5.9604645e-08,6.118417e-05,2.4080276e-05,6.2584877e-07,0.0016728044,0.0017866492,8.5532665e-06,0.00018596649,9.250641e-05
0.988063,1.1920929e-07,7.611513e-05,8.225441e-06,2.3841858e-07,0.0020301342,0.002414614,4.464388e-05,0.00021108985,0.0018720925
0.96457636,2.3841858e-07,4.464388e-05,1.0728836e-06,1.7881393e-07,0.00076776743,0.0028783977,3.9041042e-06,0.035796225,0.0048689544
8.85129e-06,0.00018492341,0.67236197,0.00035971403,0.5334645,0.781893,0.0046908855,0.00047326088,0.9379194,6.464124e-05
0.00049600005,6.8843365e-06,0.0022791326,4.708767e-06,1.335144e-05,0.9999721,0.0070922673,0.00026085973,0.0014242828,7.2717667e-06
0.9809268,7.4505806e-07,2.6881695e-05,6.252527e-05,5.2154064e-06,0.0012724996,0.0021567047,5.6624413e-06,0.0010228455,0.030043453
0.81401575,1.1920929e-07,2.9474497e-05,3.8444996e-06,4.7683716e-07,0.00036129355,0.00034755468,4.4107437e-06,0.0001205802,0.33255392
0.99610066,5.9604645e-08,6.556511e-06,1.2516975e-06,9.23872e-07,0.0004982352,0.00074380636,4.056096e-05,3.5494566e-05,0.00017043948
0.0001475513,0.0,1.1920929e-07,8.940697e-08,0.0,0.0,1.0341406e-05,0.0,8.34465e-07,0.9999944
6.0796738e-05,0.00029611588,0.4427215,0.00031092763,0.00016367435,0.0036305785,0.09059173,4.4196844e-05,0.99512976,0.00012204051
0.024104595,1.6391277e-06,0.8681309,9.36687e-05,2.6226044e-06,0.0067237318,0.003034383,2.9802322e-07,0.0007059872,0.0021504462
0.2343885,2.5063753e-05,3.7670135e-05,2.7388334e-05,1.5050173e-05,0.01704079,0.2730205,6.377697e-05,0.4776253,0.000597775
0.00026667118,8.940697e-08,0.00018423796,0.00014418364,0.38930112,0.82454264,0.0015304685,5.990267e-06,0.00069758296,3.963709e-06
0.26046056,9.23872e-07,0.0002759993,8.928776e-05,6.854534e-07,0.00032109022,0.00029706955,0.0111269355,0.050658733,0.15700853
6.520748e-05,9.23872e-07,2.771616e-06,0.99998105,3.3676624e-06,0.00085803866,0.0012416244,0.0,0.00085252523,1.1920929e-06
2.861023e-06,8.6426735e-07,0.1096133,8.523464e-05,0.072490394,8.106232e-05,0.009569377,0.00013333559,0.9932287,0.00048556924
0.99521494,2.9802322e-08,1.2308359e-05,1.1026859e-06,8.940697e-08,0.0006466806,0.0004184246,1.5497208e-06,0.000936687,0.00035336614
0.28910688,1.1324883e-06,0.0065559447,0.000117093325,8.1151724e-05,0.003996849,0.0072048903,0.050982088,0.042343527,0.029901624
0.9562969,8.940697e-08,1.8030405e-05,1.5288591e-05,1.8179417e-06,0.002279967,0.0013312399,4.261732e-06,0.017470121,0.00095281005
0.0001886487,1.1920929e-07,0.00034818053,1.1473894e-05,7.280707e-05,0.00013405085,0.0010391176,1.2218952e-06,0.9989219,1.8805265e-05
1.6987324e-06,0.98518926,0.00019159913,0.0016111135,2.4467707e-05,0.001333952,0.0028316379,2.0861626e-07,0.99169904,0.00020045042
0.98842037,2.9802322e-07,1.0758638e-05,3.8295984e-05,1.9073486e-06,0.00067031384,0.0014045238,6.824732e-06,0.00014254451,0.0075877905
0.11388543,2.9802322e-07,0.92510974,9.357929e-06,8.7320805e-06,0.00034478307,0.0034065247,0.00011622906,0.010926068,0.0016241968
1.7285347e-06,0.0002900064,8.070469e-05,0.9998617,0.00027745962,0.0025018752,0.007175803,0.0,0.32154,3.97861e-05
0.9908887,2.9802322e-08,3.4719706e-05,2.771616e-06,8.34465e-07,0.00036600232,0.00055778027,0.00097471476,4.5210123e-05,0.00019735098
0.00031900406,1.013279e-06,0.99749565,0.00019297004,0.00011536479,0.0030902922,0.0037562847,5.6922436e-06,0.07514086,0.0008710623
0.0015421212,0.0018187463,0.0033683479,0.0001232326,2.2172928e-05,0.009975165,0.9446788,3.9577484e-05,0.08381027,0.0074943006
6.7055225e-05,0.0003065169,0.0007080734,3.668666e-05,3.5762787e-07,0.00025248528,0.004939854,5.3942204e-06,0.018184125,0.9907213
0.9897286,5.9604645e-08,1.0460615e-05,1.5795231e-06,1.7881393e-06,0.00082466006,0.0012000203,9.298325e-06,0.00085011125,0.00042831898
0.11702266,3.1292439e-06,0.003969252,1.7821789e-05,2.2649765e-05,0.6739742,0.0033166707,0.0001758933,0.0010125935,0.00038173795
5.9604645e-08,0.7189044,0.0035789907,0.99994504,6.183982e-05,0.0070979297,0.040744483,0.0,0.5819463,6.592274e-05
3.6656857e-06,0.00047779083,0.0060582757,0.0007261038,1.1354685e-05,0.9998759,0.06354281,3.85046e-05,0.005533159,0.00030103326
4.7683716e-07,0.0,0.8570475,1.4722347e-05,1.6391277e-06,4.6908855e-05,0.0007455945,0.9873524,0.0003183782,0.00024226308
4.6133995e-05,8.34465e-07,0.00027385354,2.6792288e-05,0.00014194846,0.001021117,0.0031080842,0.0029762387,0.7340894,0.02333191
0.00023812056,0.998167,0.0025737286,1.6868114e-05,1.4603138e-05,0.002990961,0.0043880045,5.364418e-07,0.008885562,0.00086191297
6.854534e-07,8.019805e-05,0.9285485,0.9977757,0.00094270706,0.0013710856,0.0042006373,1.1920929e-07,0.8293433,3.3974648e-05
4.3213367e-06,3.874302e-07,0.00021651387,0.0002655089,1.04010105e-05,0.000119537115,0.0012393892,0.02373293,0.9928614,0.0026539564
1.7881393e-07,0.00021502376,0.00085908175,0.99957937,0.22163883,0.9115441,0.013055623,1.4901161e-07,0.00089377165,1.9520521e-05
0.9154914,2.9802322e-07,0.00081685185,6.2286854e-06,3.3080578e-06,0.0015665889,0.0015365481,0.00011616945,0.0011936724,0.00394243
0.9936929,2.9802322e-08,9.983778e-06,7.033348e-06,2.1755695e-06,0.0014773607,0.0011672378,2.8014183e-06,0.00028145313,4.9889088e-05
0.0003015101,0.0025474727,0.3016589,0.00027045608,0.00048705935,0.9485069,0.01563108,0.023825854,0.013942033,0.00953719
0.00836426,0.0,1.2785196e-05,6.854534e-07,2.9802322e-08,2.5123358e-05,9.429455e-05,0.9994887,3.0994415e-06,2.0444393e-05
1.1920929e-07,1.6987324e-06,0.0006992519,0.00039827824,9.1940165e-05,0.9999998,0.0017932653,1.8566847e-05,0.019572347,8.910894e-06
0.03201455,7.4505806e-07,0.00036025047,6.2584877e-06,2.0861626e-07,0.9863243,0.029512018,2.193451e-05,0.0017551482,0.000109136105
9.23872e-07,7.417798e-05,0.004221827,0.0002719164,0.00010436773,0.999999,0.0022545457,3.3974648e-05,0.013221443,1.8954277e-05
1.4126301e-05,2.7269125e-05,0.00308609,7.972121e-05,8.252263e-05,0.00042647123,0.005035311,0.00011610985,0.31867987,0.4180436
3.811717e-05,8.046627e-07,0.99954593,8.46982e-05,0.0004839301,0.0055322647,0.0102568865,0.0069277883,0.00061148405,0.0025182068
2.026558e-06,1.7881393e-07,1.4305115e-06,0.99999857,2.5331974e-06,0.00023216009,0.0004788339,0.0,5.4836273e-06,5.9604645e-08
0.50715554,6.854534e-07,4.2527914e-05,7.280707e-05,0.00010642409,0.0014363527,0.0045494437,6.4074993e-06,0.005333483,0.26400086
0.9969766,0.0,2.0563602e-06,1.7881393e-07,2.3841858e-07,0.0001937747,0.00031083822,7.748604e-07,1.0877848e-05,0.00015619397
0.0029840171,2.5242567e-05,0.0017266572,0.0014049113,0.00024041533,0.9991611,0.001681745,0.0005719662,0.048739284,0.0019502342
0.07403019,8.5532665e-06,8.440018e-05,0.00014325976,6.645918e-05,0.0069379807,0.48787335,0.004343748,0.053373754,0.0038448572
0.00014132261,2.8014183e-06,0.9346467,7.3611736e-06,0.007919401,0.01109004,0.002944827,0.00014716387,0.08250111,0.0072450936
0.26418316,4.7683716e-07,0.00010380149,1.2218952e-06,7.6293945e-06,0.5758256,0.00514701,0.0004824102,0.0003618896,0.000115573406
0.93818486,1.1920929e-07,3.129244e-05,4.5001507e-06,9.536743e-07,0.00054356456,0.000754863,4.2825937e-05,0.005340308,0.024119169
0.62741804,2.2917986e-05,0.00018042326,9.536743e-07,0.0,0.0003168583,0.00060883164,5.5462122e-05,0.00040107965,0.74488354
0.00027421117,3.6656857e-05,0.0029816628,0.0037776232,0.0005452335,0.7615813,0.009862125,0.005791813,0.29112244,0.008689582
0.6496236,3.784895e-06,0.011286795,4.0739775e-05,0.00097316504,0.0041252673,0.0093925,0.00023391843,0.004051447,0.021313637
0.049426913,6.735325e-06,0.00023418665,1.41859055e-05,1.4990568e-05,0.40864414,0.004427761,7.31051e-05,0.06348324,0.0026102066
0.9828986,0.0,1.4215708e-05,3.2275915e-05,1.1324883e-06,0.00023442507,0.00039321184,0.0013743341,2.1219254e-05,0.00037929416
0.018058002,5.662441e-07,5.5372715e-05,0.0010512471,9.23872e-07,0.00016912818,0.002478391,3.835559e-05,0.8936047,0.022304952
0.00025430322,0.0007326007,0.94600785,2.4348497e-05,6.4611435e-05,0.9666308,0.041343153,0.00012895465,0.00093984604,0.00011229515
0.9208607,2.0861626e-07,0.00071036816,2.1457672e-06,5.930662e-06,0.0011204779,0.0018659234,5.8621168e-05,0.020216584,0.005212873
6.7949295e-06,0.0029827654,0.00010710955,0.99961853,0.013116747,0.0050656497,0.536824,8.34465e-07,0.0011797845,0.00036597252
0.9718562,2.9802322e-08,4.5210123e-05,1.847744e-06,2.0563602e-06,0.0016650558,0.00067070127,0.00056040287,0.00069633126,0.0031893551
2.425909e-05,9.000301e-06,4.351139e-05,0.999981,1.347065e-05,0.00041219592,0.0022580624,0.0,0.0016003549,5.3673983e-05
0.97531134,4.172325e-07,2.2858381e-05,3.3676624e-06,8.940697e-08,0.00026738644,0.00057032704,6.5863132e-06,0.01267007,0.00014716387
9.9629164e-05,3.1292439e-06,0.00012424588,0.0005234778,0.00047904253,0.000767082,0.0057159364,0.0001834631,0.91707516,0.010752797
2.193451e-05,0.0060122013,0.0152002275,0.00063577294,9.864569e-06,0.9996009,0.036795616,0.0012876093,0.0049833357,0.00058311224
7.1525574e-07,3.2514334e-05,0.00058707595,0.999933,0.0006953776,0.0006892681,0.018338025,3.2186508e-06,0.00082078576,0.00029104948
0.9895336,2.9802322e-08,1.79708e-05,1.31726265e-05,2.026558e-06,0.00089913607,0.0018156171,6.854534e-07,0.0007612705,0.0038718283
0.00063085556,2.0861626e-07,4.8577785e-06,1.4901161e-06,2.3543835e-06,0.00019362569,0.0006070137,2.5629997e-06,0.99941957,2.9176474e-05
0.08964786,2.682209e-07,0.94465125,2.6226044e-06,1.4066696e-05,0.0006714165,0.004661411,0.0003542304,0.0011435151,0.001654774
0.0058308244,0.9587431,0.0029776692,9.983778e-06,2.3007393e-05,0.0012856424,0.0046283305,1.1622906e-06,0.00021195412,0.000300169
0.9949237,0.0,1.0788441e-05,2.0861626e-06,9.23872e-07,0.00060772896,0.00057399273,7.95722e-06,0.00037318468,0.0002632141
0.006844431,1.937151e-06,2.759695e-05,3.8146973e-06,7.122755e-06,0.00029218197,0.0020430982,3.427267e-05,0.996943,8.2194805e-05
0.8461913,1.7881393e-07,0.00019660592,4.61936e-06,4.0769577e-05,0.0010269582,0.0014424324,2.9176474e-05,0.051169097,0.0062533915
2.9802322e-08,0.0041392744,0.80076754,0.927608,0.0023664534,0.010457069,0.058828086,1.4901161e-06,0.96622986,1.013279e-06
0.06887391,0.0,6.735325e-05,1.9669533e-06,1.1026859e-06,0.00028395653,0.00067427754,7.8082085e-06,0.96923697,8.612871e-05
0.9931011,5.9604645e-08,1.6540289e-05,2.9802322e-07,1.7285347e-06,0.00028935075,0.00069463253,3.1292439e-06,0.00044378638,0.0011494756
0.9890932,0.0,8.85129e-06,2.9802322e-07,1.5199184e-06,0.00024083257,0.00029248,0.0030978024,2.9861927e-05,0.001465857
0.20256847,1.847744e-06,1.758337e-06,2.682209e-07,4.172325e-07,0.0022828877,0.65746236,0.0004387498,0.00019809604,5.4597855e-05
0.9335015,6.2584877e-07,8.442998e-05,4.708767e-06,2.9802322e-07,0.00089910626,0.00073865056,1.7881393e-06,0.085479975,0.0042175055
0.655024,7.748604e-07,9.36985e-05,1.847744e-06,4.3213367e-06,0.00051033497,0.0010593534,1.937151e-06,0.26956993,0.0016445518
0.0011232197,2.9802322e-08,5.155802e-06,7.212162e-06,2.9802322e-08,5.8829784e-05,0.00086304545,4.172325e-07,0.9988568,4.2766333e-05
0.2945826,4.7683716e-07,0.00024870038,4.133582e-05,0.00033915043,0.0020534396,0.030908018,0.13099793,0.0012957454,0.034685016
5.632639e-06,3.7550926e-06,0.03634745,0.00012904406,0.00021117926,0.00022536516,0.005984187,0.0012071431,0.99864465,0.0004361868
1.7881393e-07,5.543232e-06,0.0002900064,0.99989164,0.99969137,0.0009138286,0.0075550377,5.9604645e-08,0.0014182925,9.23872e-07
0.9580677,1.4901161e-07,2.4974346e-05,2.413988e-06,1.9073486e-06,0.0010128915,0.004604727,1.3113022e-06,0.0026769042,0.009030521
0.66967547,2.3841858e-07,0.0020736754,1.7821789e-05,2.220273e-05,0.00094652176,0.0011543036,3.4570694e-05,0.087171525,0.0072042644
0.85861945,0.0,0.00020611286,3.7550926e-06,1.937151e-06,0.0017288625,0.001396656,0.0025609136,0.06092283,0.0021917224
0.0014839172,2.4288893e-05,2.2053719e-06,3.5464764e-06,1.7881393e-06,0.0030602217,0.9890505,8.6426735e-07,0.0015654564,0.00038829446
0.00012618303,2.3841858e-07,0.00067552924,3.6239624e-05,1.4066696e-05,0.00045889616,0.002303481,0.9607527,0.00097352266,0.014156729
4.172325e-07,2.6851892e-05,0.00016406178,0.9998613,2.2470951e-05,0.0012115538,0.0040202737,9.62615e-06,0.00010368228,0.0007200837
0.00011199713,8.171797e-05,0.00010403991,0.00083988905,4.6789646e-06,0.8899175,0.95218456,9.441376e-05,0.023815751,0.001629293
0.00036224723,6.7442656e-05,0.083877385,0.00081408024,0.14785096,0.018405467,0.04973203,5.1170588e-05,0.88623977,0.0036616027
0.0011765957,1.013279e-06,0.9988518,2.2947788e-06,9.122491e-05,0.0021634698,0.003826797,7.033348e-06,0.13952279,0.00023683906
0.00021088123,1.1920929e-07,5.1617622e-05,6.377697e-06,2.6226044e-06,0.00012508035,0.000418365,8.788705e-05,0.9994588,0.00013321638
0.99506366,5.9604645e-08,2.3692846e-05,3.2484531e-06,7.748604e-07,0.0008048117,0.00082826614,2.0354986e-05,0.00030890107,0.00032007694
0.9374912,5.453825e-06,0.0002001226,7.5399876e-06,1.6391277e-06,0.0030883849,0.018088877,4.929304e-05,0.00036907196,0.0065417886
2.0593405e-05,1.7881393e-07,8.583069e-06,0.99998546,5.3942204e-06,0.00047045946,0.0017074645,0.0,1.579523e-05,1.218915e-05
6.467104e-06,4.172325e-07,3.993511e-06,0.99999624,0.00010228157,0.0004877448,0.000880152,0.0,2.8163195e-05,1.1920929e-07
0.07704696,1.9669533e-06,0.00020229816,0.00048303604,3.758073e-05,0.00935173,0.019549072,0.00015366077,0.9073267,0.00050646067
0.98750126,5.9604645e-08,0.00010839105,8.404255e-06,1.6093254e-06,0.0004965961,0.001370728,4.2021275e-06,0.00020262599,0.008615881
0.97284085,5.9604645e-08,0.000105679035,6.2584877e-06,3.963709e-06,0.0013690591,0.002462238,0.00015240908,0.0011495948,0.0012037754
0.2558496,4.440546e-06,6.2584877e-07,3.1292439e-06,7.4505806e-07,0.002884388,0.39870352,7.5101852e-06,0.0006766319,0.00052660704
0.0009331405,6.5773726e-05,9.211898e-05,0.0011401474,0.0008866787,0.010423362,0.7955841,0.0039928555,0.00075012445,0.010354102
0.8614086,1.9967556e-06,0.001467675,0.00015351176,2.7924776e-05,0.00494799,0.007952869,0.00023448467,0.06646475,0.0071947575
0.39303353,5.096197e-06,0.0003118217,0.00015684962,3.8146973e-06,0.0089096725,0.24198937,1.6391277e-06,0.006430328,0.002227068
6.237626e-05,1.41859055e-05,0.002701521,6.470084e-05,0.00036183,0.00097212195,0.0075781047,0.000107616186,0.6225028,0.13881677
0.56489,5.9604645e-08,0.00055509806,1.0311604e-05,1.7911196e-05,0.0012999475,0.0022717416,0.00089785457,0.5625054,0.00038698316
0.0004900396,1.6391277e-06,7.891655e-05,0.0066570044,7.510185e-05,0.0005646348,0.008502662,3.8444996e-05,0.99804866,0.00086560845
4.3809414e-06,0.99394935,0.002393335,0.0034580529,1.04904175e-05,0.004788786,0.03201717,1.013279e-06,0.9728786,0.0021319091
0.0020907223,5.066395e-07,6.619096e-05,3.963709e-06,8.136034e-06,0.0003157258,0.0011206865,2.7477741e-05,0.9964591,0.0009008944
0.00038778782,8.940697e-08,0.9982412,2.9802322e-07,1.4603138e-06,0.0007748306,0.0009762347,4.7683716e-07,0.4842002,4.23193e-06
1.4692545e-05,0.99736977,0.00035527349,0.097260416,1.0073185e-05,0.0018136203,0.0004477799,4.3094158e-05,0.017878175,0.00019174814
0.35301918,1.1920929e-07,7.984042e-05,3.1888485e-06,7.1525574e-07,0.00015318394,0.0002732575,3.0398369e-06,0.83555555,0.0020900667
1.4126301e-05,0.97891665,5.1796436e-05,0.0005451143,3.4570694e-06,0.0059761405,0.014224082,5.9604645e-08,0.98688114,0.00041267276
8.755922e-05,0.99572635,0.002572447,0.0020599365,0.00032421947,0.006238997,0.008483827,4.172325e-07,0.5469233,0.0026324391
0.006273836,0.1450584,0.18370542,0.00022026896,5.0842762e-05,0.0044534504,0.034189314,0.00017789006,0.0008491576,0.080165625
8.940697e-07,3.2484531e-06,0.002054572,0.00059998035,0.0006625056,0.9999997,0.0011745393,0.0009125471,0.033735096,2.0682812e-05
8.678436e-05,0.43822104,0.019813418,0.0021481514,0.0025951266,0.0077248514,0.18903652,0.018927693,0.0009146929,0.006514311
1.6570091e-05,2.026558e-06,0.99816597,0.00011315942,0.0013577044,0.0019961298,0.0054511726,7.4207783e-06,0.7164205,3.8444996e-06
0.88621557,4.7683716e-07,1.6719103e-05,1.7285347e-06,1.7881393e-07,9.635091e-05,0.0002347827,6.9737434e-05,1.6540289e-05,0.25736266
1.3709068e-06,0.0013211071,0.00044885278,0.7794688,0.045222223,0.99952996,0.033228844,6.4343214e-05,0.0134164095,0.0022807717
0.69044924,0.0,3.5703182e-05,3.46303e-05,0.010199845,0.0013590455,0.0022763908,1.758337e-06,0.006293744,0.006695032
6.2584877e-07,0.0003682375,0.00021275878,0.99998224,3.618002e-05,0.031684577,0.21084103,2.9802322e-08,0.020751625,8.499622e-05
0.038608998,2.9802322e-08,0.00015717745,4.61936e-06,1.7285347e-06,0.00011789799,0.00016278028,0.9854493,3.120303e-05,0.0015286505
0.7949233,5.9604645e-08,0.00023928285,0.00011309981,1.937151e-06,0.001188904,0.0013377666,0.24282488,0.0018745065,0.0048481226
0.81245565,2.9802322e-07,0.0008139312,0.0001437664,2.4825335e-05,0.0018883646,0.00333035,0.007883698,7.200241e-05,0.010778606
0.9841168,2.3841858e-07,2.4735928e-05,6.4969063e-06,6.2584877e-07,0.0010288954,0.0016903579,2.6226044e-06,0.0015185773,0.0031204522
0.0001475513,0.0,1.1920929e-07,8.940697e-08,0.0,0.0,1.0341406e-05,0.0,8.34465e-07,0.9999944
0.03222239,1.4424324e-05,0.00014936924,0.00011846423,1.2636185e-05,0.0008816123,0.2195803,0.042131603,0.0203619,0.0005403161
0.00096437335,4.4703484e-06,0.00024363399,0.00026717782,0.0001450181,0.000710845,0.0059483647,3.0487776e-05,0.997159,0.00020101666
2.9802322e-08,0.000110566616,0.0001707375,0.9989462,0.00073337555,0.0002733171,0.01098758,0.0,0.00491485,0.010558933
0.06619504,6.2584877e-07,0.0011468828,1.0728836e-05,0.0009991527,0.0019256771,0.008063078,3.090501e-05,0.63519484,0.019294173
1.1920929e-07,0.017734379,0.00027555227,0.9997374,0.0002116859,0.0063842535,0.021603465,7.748604e-07,0.19189656,0.0019198954
0.00029152632,2.3841858e-07,9.381771e-05,3.284216e-05,4.2915344e-06,0.00014653802,0.0012311339,0.00033012033,0.9994183,0.000102967024
0.9883795,2.9802322e-08,1.1593103e-05,2.115965e-06,1.7881393e-07,0.0008017719,0.0011378527,3.8444996e-06,0.0040305555,0.0013529062
0.47754824,7.4505806e-07,0.00044062734,4.1395426e-05,1.4603138e-06,0.0028627515,0.044373065,7.709861e-05,0.00010305643,0.0005993545
0.9122708,6.2584877e-07,4.7385693e-05,3.8444996e-06,1.4007092e-06,0.00083196163,0.00051659346,0.0006339252,7.838011e-05,0.07235342
0.0,0.001768887,0.0069371164,0.99853987,0.6669238,0.9977847,0.029256046,1.4573336e-05,0.0036228895,8.076429e-06
0.16374332,6.1392784e-06,0.32873586,3.4421682e-05,1.1980534e-05,0.0013062954,0.0112473965,0.03165859,0.00050625205,0.030768603
9.685755e-06,4.172325e-07,3.9994717e-05,0.9998522,2.9802322e-08,0.0004325211,0.001494199,2.9802322e-08,1.0937452e-05,0.00083094835
0.15032265,0.00024929643,1.475215e-05,1.1950731e-05,1.1146069e-05,0.04450971,0.76697797,0.00034829974,0.00022253394,0.00097474456
0.049188167,5.9604645e-08,1.7553568e-05,1.1920929e-07,2.682209e-07,4.518032e-05,0.00013494492,0.9933313,1.2665987e-05,0.0007233918
6.338954e-05,5.4746866e-05,0.00018185377,0.9997628,0.0025002062,0.0017270148,0.004767835,0.0,0.00094121695,5.015731e-05
0.0014348924,0.9853431,0.0027205646,1.4662743e-05,7.748604e-06,0.011654615,0.016003698,5.6028366e-06,0.28839123,0.002870202
3.2126904e-05,8.940697e-08,3.3974648e-06,0.00022608042,0.0,1.4305115e-06,7.8082085e-06,2.9802322e-08,1.9431114e-05,0.9991018
9.924173e-06,1.04904175e-05,3.132224e-05,2.2798777e-05,2.9802322e-07,0.00010165572,0.0020208657,1.2636185e-05,0.04565209,0.980461
0.9250187,0.0,2.3782253e-05,2.2351742e-06,7.4505806e-07,0.00056913495,0.0006659329,2.4437904e-06,0.33731443,0.00018900633
6.830692e-05,6.92904e-05,0.0017575622,4.2438507e-05,0.00011339784,0.9999927,0.004633963,3.299117e-05,0.07724029,0.00011143088
1.7881393e-07,1.7881393e-07,6.684661e-05,0.999882,0.99859166,0.00012284517,0.0022256672,0.0,5.8859587e-05,5.662441e-07
0.0109265745,0.0,1.3411045e-06,1.1920929e-07,0.0,1.0341406e-05,4.23491e-05,0.9989725,7.301569e-06,3.2782555e-05
0.005583942,2.9802322e-07,7.4476004e-05,1.9520521e-05,1.5497208e-06,0.0008533299,0.002170831,2.0742416e-05,0.97436863,0.006311536
0.96414405,0.0,9.804964e-06,0.00095534325,6.0498714e-06,0.0008431077,0.0017237961,0.00088617206,4.592538e-05,0.00017100573
0.01023972,5.9604645e-08,0.0005951822,0.00075149536,2.4735928e-06,0.0002065897,0.0012354255,0.97457576,0.0023551583,0.005047828
0.00015157461,2.3841858e-07,0.9997264,0.00020492077,0.00028151274,0.002501011,0.0041754246,6.0498714e-06,0.0071157515,2.4199486e-05
0.0013412535,1.1324883e-06,1.9073486e-05,1.4573336e-05,2.3841858e-06,0.000166744,0.00071173906,2.3186207e-05,0.999056,6.902218e-05
0.0004144609,0.0005183518,9.942055e-05,0.0001296401,7.5399876e-06,0.027544826,0.9665152,6.0260296e-05,0.098920524,0.003551066
0.16937089,9.23872e-07,0.0004749894,8.3744526e-05,1.5616417e-05,0.0012019575,0.0026723146,0.00019651651,0.70638627,0.004902661
1.3560057e-05,2.2262335e-05,0.0011769831,0.0006249547,0.00014665723,0.9999844,0.0010510683,0.0014453828,0.011128873,0.000816226
0.94973636,5.9604645e-08,3.8713217e-05,1.8775463e-06,3.0398369e-06,0.0008844137,0.0012014806,0.0032539368,0.011295795,0.0005914569
0.7479976,2.115965e-06,0.0013484061,7.480383e-06,1.7881393e-06,0.0068578124,0.009736657,0.00052559376,0.0004605055,0.0013789833
0.0029901564,5.2452087e-06,0.0002645254,1.1146069e-05,9.119511e-06,0.00018277764,0.0006968081,8.404255e-06,0.99131405,0.0007416606
0.008395731,1.5854836e-05,1.7285347e-06,9.7334385e-05,3.5762787e-07,0.008583188,0.99181056,1.7285347e-06,0.00016710162,0.00010377169
0.99531996,1.7881393e-07,2.3812056e-05,1.1324883e-06,8.940697e-08,0.00024431944,0.0013621747,4.7445297e-05,3.170967e-05,0.00082182884
1.1026859e-06,1.6391277e-06,2.104044e-05,0.99999803,1.7374754e-05,0.00040191412,0.0038732886,0.0,0.00020813942,1.4901161e-06
0.0031861663,0.0,3.963709e-06,6.2584877e-07,0.0,9.745359e-06,2.7447939e-05,0.999658,1.0609627e-05,4.827976e-06
0.0065779984,1.1920929e-07,0.00019270182,1.2040138e-05,2.3841858e-05,0.00026914477,0.0008909404,6.0915947e-05,0.9962193,0.00034818053
0.27051848,3.567338e-05,0.0005707145,1.7285347e-06,1.7881393e-07,0.00056913495,0.003333807,2.7030706e-05,0.74376863,0.005682379
1.7881393e-06,0.0,8.904934e-05,5.3048134e-06,5.9604645e-08,4.1782856e-05,0.00047841668,0.99987155,5.7041645e-05,0.00011917949
4.413724e-05,0.00015208125,3.7044287e-05,5.9872866e-05,1.847744e-06,0.00291875,0.99370104,3.6418438e-05,0.0050261617,0.018822372
0.026861578,2.9802322e-07,0.0007984936,2.5779009e-05,1.04010105e-05,0.0005199909,0.0015001297,0.0002708137,0.9659002,0.0028201938
6.4074993e-06,0.0,4.7683716e-07,3.5762787e-07,0.0,8.940697e-08,9.834766e-06,0.0,4.3541193e-05,0.9999513
0.000225842,0.0003786087,0.045676947,0.00044816732,0.0010181069,0.002243042,0.039946973,9.834766e-07,0.9445013,0.014741898
0.011445224,2.771616e-06,0.0001733005,1.680851e-05,2.026558e-06,0.00086939335,0.0042904615,7.763505e-05,0.9180441,0.0099107325
0.00020569563,1.0430813e-06,6.276369e-05,2.503395e-06,6.377697e-06,0.9999778,0.009916455,0.0001180172,0.0016845167,1.642108e-05
0.99755263,2.9802322e-08,1.5318394e-05,5.662441e-07,3.5762787e-07,0.00052291155,0.0010223985,1.1026859e-06,0.000110298395,0.0004094541
0.99458826,2.9802322e-08,1.0877848e-05,2.6226044e-06,3.2782555e-07,0.0005450249,0.00047841668,2.4110079e-05,0.00076144934,0.00027132034
0.97917044,2.9802322e-08,3.4987926e-05,4.172325e-07,5.9604645e-07,0.0008119941,0.00063195825,0.00025004148,0.0008698106,0.0019393563
0.9752307,8.940697e-08,7.6293945e-05,1.642108e-05,3.066659e-05,0.0020475984,0.001535207,0.0032272935,0.00012770295,0.0005838275
0.00094771385,1.3411045e-06,0.00039476156,3.6239624e-05,4.312396e-05,0.0001847744,0.0006069541,3.296137e-05,0.9977305,3.9219856e-05
0.990842,1.4901161e-07,2.6196241e-05,3.0100346e-06,9.23872e-07,0.00081935525,0.0010672808,3.695488e-05,0.0001000762,0.008389741
0.0006825924,0.00048822165,0.007018596,0.0018901229,0.00038319826,0.9997449,0.020116389,0.0001603663,0.004768193,0.00040784478
0.43763864,4.4703484e-07,4.2438507e-05,4.142523e-06,3.5762787e-07,0.00044602156,0.0014602244,2.4735928e-06,0.83149284,0.0009913743
0.07433814,2.9802322e-08,8.225441e-06,1.7762184e-05,2.3841858e-07,0.00014868379,0.0003466308,0.975207,5.275011e-05,0.0018746257
0.007789135,0.8244654,0.013267279,0.0001642704,4.5895576e-06,0.0021667778,0.005974591,2.9802322e-07,0.0011777878,0.0022019744
3.9190054e-05,0.9983391,0.000590235,0.01126349,5.8561563e-05,0.008192331,0.0006761849,0.00029087067,0.05851382,0.0067236423
0.99527717,0.0,2.115965e-06,1.5199184e-06,3.2782555e-07,0.00040778518,0.00030568242,1.2278557e-05,7.3611736e-06,0.0026379824
0.0001834631,0.00018167496,0.011556566,0.030836523,0.0007507801,0.9978056,0.0021063685,7.304549e-05,0.24837849,0.001098603
0.99469787,0.0,1.4722347e-05,1.5497208e-06,5.9604645e-08,0.00071534514,0.0020762384,9.23872e-07,0.00019153953,0.0016281903
0.00018849969,8.940697e-06,0.0008069575,0.9988749,0.0814046,0.0012355149,0.0026276112,2.9802322e-08,0.26323098,4.068017e-05
0.0008935034,1.0728836e-06,0.00031492114,8.21054e-05,3.170967e-05,0.00019052625,0.001679182,6.121397e-05,0.99781245,0.0008945167
0.9764358,0.0,1.9073486e-06,2.9802322e-08,2.9802322e-08,5.2303076e-05,9.420514e-05,0.0019345284,2.989173e-05,0.0050312877
0.1521743,1.7881393e-07,0.00017356873,5.155802e-06,1.2099743e-05,0.0009495914,0.0027456582,0.000119268894,0.9181472,0.0007148087
0.9959039,5.9604645e-08,1.3142824e-05,1.591444e-05,2.9206276e-06,0.0013076663,0.0013094842,6.8843365e-06,4.7534704e-05,0.0016263425
0.0024513304,8.6426735e-07,0.002821058,0.0042605996,0.00012513995,0.00025379658,0.0015462637,0.00011059642,0.9944564,0.00028467178
7.5399876e-06,6.2584877e-06,1.2457371e-05,0.9999767,2.0563602e-06,0.0003567636,0.0023575723,0.0,0.033554226,2.6881695e-05
0.99034333,1.1920929e-07,1.4960766e-05,1.3113022e-06,7.1525574e-07,0.0009920895,0.002792418,3.0696392e-06,0.00015848875,0.003012091
0.1187495,5.9604645e-07,1.4364719e-05,3.516674e-06,5.00679e-06,0.00025689602,0.0017638803,6.854534e-07,0.9659252,0.00040382147
2.5182962e-05,1.2874603e-05,0.0009925067,1.3440847e-05,6.4969063e-06,0.99999666,0.019632101,4.8279762e-05,0.0009663701,1.4275312e-05
0.8750938,1.7881393e-07,1.9311905e-05,1.4990568e-05,9.5665455e-06,0.0016230941,0.0012446344,1.847744e-06,0.03263375,0.0029273331
0.017481446,9.23872e-07,3.0726194e-05,1.1563301e-05,2.3841858e-06,0.00013676286,0.0005724132,2.0861626e-07,0.9843489,0.0015557408
0.00013646483,2.3841858e-07,1.2427568e-05,0.9999361,4.2915344e-06,0.000246346,0.0024280846,0.0,7.301569e-05,2.5957823e-05
0.9644904,0.0,3.144145e-05,6.2584877e-07,2.3245811e-06,0.0008970201,0.0008248091,0.0018681586,0.0009901822,0.0003824532
3.2782555e-07,0.00010755658,7.2062016e-05,0.99994063,0.002692759,0.0051836073,0.067781806,1.7881393e-07,0.0002606809,0.00012528896
1.0728836e-06,2.0861626e-07,7.390976e-05,0.9999895,0.00034800172,0.0002796948,0.00078076124,0.0,0.009049416,1.0162592e-05
0.0011027753,6.1392784e-06,1.2457371e-05,1.1354685e-05,1.1622906e-06,0.006205499,0.6773358,0.14175195,0.00045716763,0.0019794405
5.915761e-05,3.8146973e-06,1.1622906e-05,9.298325e-06,3.6358833e-06,0.00044721365,0.0020774305,2.3722649e-05,0.015431166,0.9388341
6.2584877e-07,7.748604e-07,5.1766634e-05,0.9999876,0.0007124841,0.00030374527,0.004351467,0.0,0.008472592,4.5776367e-05
0.39974198,2.0861626e-07,6.80387e-05,1.8179417e-05,1.6242266e-05,0.00081822276,0.0019015968,5.155802e-06,0.8252319,0.0018387437
7.4505806e-07,0.9985963,0.0009249449,0.29683748,1.9818544e-05,0.0015753806,0.00085923076,3.2782555e-07,0.96179307,9.000301e-06
9.179115e-06,1.3500452e-05,3.3944845e-05,0.9999715,0.00019082427,0.002641648,0.006371498,0.0,0.00019487739,1.2278557e-05
0.23456323,2.3841858e-07,4.529953e-06,2.3841858e-07,2.9802322e-08,9.804964e-05,0.00023180246,1.22487545e-05,0.004132122,0.5454166
0.0,3.5762787e-07,0.00021201372,0.99997354,0.00077205896,0.00011444092,0.0014671981,4.172325e-07,3.516674e-05,0.0002284944
0.005652815,0.00055500865,1.2904406e-05,1.7374754e-05,1.4394522e-05,0.0274283,0.8938731,9.596348e-06,0.47343525,0.0027326643
0.0007404387,2.3841858e-07,0.99283564,3.1292439e-06,0.00076276064,0.0005297661,0.005006641,4.7683716e-07,0.016284645,0.0010894537
0.9873003,8.940697e-08,4.836917e-05,4.7683716e-07,4.7683716e-07,0.000410825,0.00055995584,0.00013950467,0.00012493134,0.0005261302
0.9334259,1.7881393e-06,5.4061413e-05,2.1159649e-05,2.3841858e-07,0.001072973,0.0029183626,4.5895576e-06,0.13711664,0.0040395856
0.0016822219,2.8908253e-06,0.0005079508,0.0007300675,3.0964613e-05,0.9896282,0.0015874207,0.0052851737,4.735589e-05,0.0005636811
2.5302172e-05,0.0,2.9802322e-08,2.9802322e-08,0.0,0.0,2.1874905e-05,0.0,3.1292439e-06,0.9999713
0.9958304,0.0,1.1205673e-05,9.23872e-07,1.1920929e-07,0.0007725656,0.00066417456,8.621812e-05,7.587671e-05,0.00018498302
0.0009189844,6.854534e-07,2.56598e-05,8.106232e-06,2.0563602e-06,0.00015333295,0.00066640973,3.5762787e-06,0.9990506,3.0040741e-05
0.9572223,2.9802322e-07,8.440018e-05,1.090765e-05,7.212162e-06,0.00081560016,0.00166291,1.847744e-06,0.0012373626,0.013270676
0.9740933,5.9604645e-08,5.143881e-05,5.632639e-06,5.9604645e-08,0.00086790323,0.00040888786,3.0696392e-06,0.022292703,0.0005644858
0.0049526393,0.000346452,9.208918e-06,6.613135e-05,6.854534e-07,0.010315776,0.9918734,5.9604645e-07,0.01356104,0.0006200671
0.3475239,1.1920929e-07,0.34604007,1.2516975e-06,8.067489e-05,0.000798136,0.0019060969,0.0008017421,0.00029593706,0.0021496117
0.96484184,1.1920929e-07,0.00020873547,4.1127205e-06,1.50203705e-05,0.00056505203,0.001406908,0.00094497204,6.03199e-05,0.01410532
0.0007942319,0.0007644892,0.00022035837,0.005037129,0.021672934,0.0051464736,0.02047801,5.9604645e-08,0.002749294,0.08124304
9.685755e-05,0.9886531,0.009126902,0.0009928048,0.00010550022,0.012003541,0.013851613,2.3841858e-07,0.4554361,0.013746589
0.9560743,2.3841858e-07,2.014637e-05,9.745359e-06,6.854534e-07,0.00071781874,0.00047427416,3.8176775e-05,0.00021988153,0.058873624
2.1755695e-06,6.67572e-06,0.00010275841,0.9999199,0.0022482872,0.0003246367,0.004399717,0.0,0.25480247,2.759695e-05
0.58641493,5.4836273e-06,0.050438523,2.0980835e-05,0.00046554208,0.0014145672,0.0031947494,1.2487173e-05,0.00931859,0.00082579255
0.061335772,2.9802322e-07,8.687377e-05,3.8325787e-05,4.4703484e-06,0.0006045699,0.0016948879,3.2752752e-05,0.9146174,0.0024506748
2.9802322e-07,0.0007084608,0.54237914,0.961162,5.3226948e-05,0.0006223619,0.0056931674,2.9802322e-07,0.9939548,9.655952e-06
0.19900069,2.682209e-07,0.00077819824,0.0006079376,2.4437904e-06,0.0007071197,0.0003799498,0.49346542,0.00023260713,0.004465997
0.00046941638,9.834766e-07,0.9511357,1.1503696e-05,4.6879053e-05,0.0017411411,0.007779509,6.9350004e-05,0.9451841,0.00030592084
0.8922821,2.9802322e-08,8.177757e-05,1.0073185e-05,0.00014874339,0.0019272566,0.0017113388,2.592802e-06,0.00657928,0.00046476722
2.9802322e-08,0.0010032356,0.00038015842,0.9997721,0.0013024211,0.0019349158,0.031614214,3.5762787e-06,0.93842965,5.015731e-05
8.6426735e-06,2.0861626e-07,5.453825e-06,0.9999968,1.2218952e-06,0.00027778745,0.0007458329,0.0,4.3213367e-06,4.172325e-07
0.000744015,1.2546778e-05,0.00057032704,0.00086155534,1.1354685e-05,0.00042012334,0.013815016,7.599592e-06,0.99675477,0.0018641055
3.0696392e-06,0.4010523,0.028305203,0.9998795,0.21165183,0.22714245,0.106167465,7.748604e-07,0.013809025,9.745359e-06
0.9714776,8.940697e-08,4.1514635e-05,4.3809414e-06,1.218915e-05,0.0019111931,0.0014932156,0.00040510297,0.00011634827,0.0048719645
3.567338e-05,0.97937775,0.0023160875,0.0018630326,4.2825937e-05,0.0074121356,0.021787345,7.1525574e-07,0.65455484,0.016200185
0.99728596,8.940697e-08,1.4454126e-05,9.834766e-07,5.364418e-07,0.0009612739,0.00080007315,2.9802322e-07,0.00016859174,0.0004464984
0.0018261373,2.9802322e-07,0.00010481477,1.7762184e-05,3.8444996e-06,0.00042328238,0.00095900893,0.00017634034,0.99834394,0.000102341175
0.00064721704,0.00015807152,0.003975153,0.0013363659,0.0006028712,0.00041854382,0.0019976795,1.0341406e-05,0.99211925,0.0035395622
1.3649464e-05,0.9934639,0.02892065,0.87864757,0.002325803,0.028473407,0.017633557,1.1920929e-07,0.46513107,0.00046658516
0.877572,2.0861626e-07,6.714463e-05,2.8550625e-05,1.9073486e-06,0.011709064,0.0013739765,0.00024712086,0.038379252,0.0019574463
5.841255e-06,2.965331e-05,0.0018385351,0.0074573457,0.00020608306,0.9999975,0.007219851,0.00015762448,0.0032888353,4.6253204e-05
0.9262973,0.0,1.4543533e-05,6.854534e-07,5.662441e-07,0.0002989769,0.00032690167,0.004774332,5.966425e-05,0.029984385
6.0796738e-06,5.662441e-07,2.1129847e-05,2.3841858e-07,5.9604645e-08,2.503395e-05,0.00064858794,0.9356456,0.9873829,5.453825e-06
7.238984e-05,0.97452956,0.005240679,0.0072511435,5.3346157e-06,0.0043115914,0.010243356,1.758337e-06,0.901911,0.0066916347
0.9831053,5.9604645e-08,3.4421682e-05,2.2351742e-06,4.172325e-07,0.00033205748,0.0005636215,3.963709e-06,2.6017427e-05,0.016034245
0.0004542172,0.0008506775,0.0046058297,0.0015304685,4.774332e-05,0.99808466,0.13477862,0.0006123483,0.055318832,0.0038270056
0.00051373243,2.4735928e-06,0.00010329485,0.000106453896,1.463294e-05,0.00040248036,0.0022061765,8.204579e-05,0.99955714,3.9845705e-05
0.000116854906,0.72661114,0.08283624,0.5183261,0.0005080104,0.024339795,0.0025197864,0.00014027953,0.2496723,0.0008328855
0.0010276437,0.0004968941,0.00994429,0.090678066,0.0093408525,0.9945264,0.029975712,0.0016220212,0.0036323369,0.023004025
6.2286854e-05,2.5331974e-06,3.066659e-05,2.887845e-05,1.579523e-05,0.000898093,0.002372384,0.002086699,0.01334253,0.9721453
0.0125109255,5.3346157e-06,0.00059100986,0.95600843,1.3142824e-05,0.0006155968,0.0026606917,7.390976e-06,0.27716795,0.0021103323
0.00071266294,1.1622906e-06,0.00024369359,1.5318394e-05,3.5315752e-05,0.0005491972,0.0034853816,0.00021335483,0.99792075,0.0011720359
8.6545944e-05,4.7683716e-07,0.00045707822,2.8759241e-05,7.480383e-06,9.536743e-05,0.0012075603,0.00037500262,0.9995854,0.00033414364
4.976988e-06,9.62019e-05,0.0004234314,0.9999721,6.955862e-05,0.00068855286,0.053432792,8.940697e-08,0.0013589561,0.00030347705
5.722046e-06,0.000141114,0.0108861625,0.0013971925,1.2367964e-05,0.9999723,0.0032936335,0.00020754337,0.20036158,0.00021389127
0.00045341253,4.172325e-07,0.9988055,1.5616417e-05,1.6748905e-05,0.0019891262,0.0013307929,1.7285347e-06,0.15664148,2.6613474e-05
0.8125239,4.4703484e-07,3.3318996e-05,6.67572e-06,4.3809414e-06,0.0008678436,0.0006596148,0.00020706654,0.010309458,0.34343606
0.0016388297,0.0009191632,3.618002e-05,4.091859e-05,2.3394823e-05,0.011919022,0.96454126,0.0006517768,0.0013506413,0.0019511282
0.99433494,0.0,1.31726265e-05,1.5199184e-06,5.364418e-07,0.00079748034,0.0005609095,3.9339066e-06,0.0005854666,0.0009135604
5.751848e-06,1.7881393e-07,6.556511e-06,0.9999939,3.874302e-07,0.0006480515,0.002131343,0.0,0.0012851655,1.937151e-06
0.004227996,0.00018441677,0.00033512712,0.000233531,4.887581e-06,0.0016554594,0.14080483,1.7136335e-05,0.005842179,0.42961133
0.0015713573,2.682209e-07,1.4662743e-05,1.296401e-05,5.3942204e-06,0.00020933151,0.0018424392,1.4901161e-05,0.9995887,1.54078e-05
0.05121869,3.5762787e-07,4.7951937e-05,3.695488e-06,1.4007092e-06,0.0003195107,0.001604408,1.9073486e-06,0.9543848,0.00728935
7.1525574e-07,0.18297493,0.07009709,0.9829879,0.0067694783,0.00075268745,0.0405699,2.682209e-07,0.977829,0.00020009279
0.99297345,0.0,2.8312206e-06,4.7683716e-07,8.6426735e-07,0.0005442798,0.0003221035,4.7266483e-05,3.1113625e-05,0.0011255443
0.9039752,1.2516975e-06,0.0002130568,8.2969666e-05,3.7252903e-06,0.002555281,0.007956028,0.00013303757,0.0039468706,0.052201837
0.9766727,2.9802322e-08,1.2218952e-05,1.2814999e-06,3.963709e-06,0.0015770197,0.0009846985,6.4373016e-06,0.0044743717,0.0033753216
0.0007299781,1.1920929e-07,8.627772e-05,2.4437904e-06,0.00050765276,0.00028452277,0.0010145903,1.1056662e-05,0.99788225,0.0003620088
0.50212073,0.0,0.00017184019,4.4703484e-06,3.6358833e-06,0.0006251931,0.0006790459,9.357929e-06,0.63697886,0.00074735284
0.00013968349,1.7881393e-07,0.0024099052,3.9607286e-05,1.4305115e-06,7.766485e-05,0.0015110672,0.9987411,0.00019183755,0.0019356906
0.9941367,1.1920929e-07,4.976988e-06,6.4969063e-06,5.364418e-07,0.0007055402,0.0007381737,4.172325e-07,0.00032499433,0.0011909604
4.708767e-06,0.013080388,0.71385455,0.3838658,0.0070649683,0.97603333,0.10067192,0.00047063828,0.4035275,0.0010106862
0.7306784,2.9802322e-08,7.900596e-05,3.8951635e-05,2.6851892e-05,0.0008351505,0.00091713667,5.90086e-06,0.4473439,0.00043225288
0.5721868,3.9041042e-06,0.012888402,6.377697e-06,3.296137e-05,0.00057816505,0.003897339,0.00037261844,0.036478728,0.035038024
0.0074414313,9.834766e-07,0.004042059,0.00010076165,0.0019074082,0.00059628487,0.0029246807,3.886223e-05,0.9129834,0.008050233
0.00072047114,2.0861626e-07,2.7567148e-05,3.504753e-05,3.1620264e-05,0.00014126301,0.0016058683,6.3210726e-05,0.9995502,0.00015759468
0.013711393,2.682209e-06,1.8388033e-05,0.0011439025,0.00024551153,0.010962069,0.72021174,5.441904e-05,0.0007663667,0.00013375282
0.07214829,2.9802322e-08,1.1116266e-05,5.990267e-06,8.940697e-07,0.00043958426,0.0015345514,1.8715858e-05,0.9808763,0.0002475977
0.9612874,2.503395e-06,0.00014039874,7.292628e-05,3.5464764e-06,0.0010839999,0.0020509958,3.993511e-06,8.034706e-05,0.06421408
0.9724264,2.9802322e-08,9.208918e-06,6.854534e-07,4.4703484e-07,0.0004875958,0.00035187602,3.1501055e-05,3.6358833e-05,0.018368214
0.017858326,8.940697e-08,4.976988e-06,6.7949295e-06,2.7120113e-06,7.82609e-05,0.0011268854,0.98519194,7.480383e-05,0.00022631884
0.0025747418,2.5689602e-05,0.0016560256,0.00022548437,9.769201e-05,0.9999247,0.010773778,0.0013743043,0.00073328614,0.00013950467
0.0072570145,5.9604645e-07,6.914139e-05,4.4107437e-06,1.2367964e-05,0.0021013618,0.041060895,0.00045883656,0.94215655,0.0010053813
0.0038700104,1.2218952e-06,0.0003426969,3.993511e-06,0.000114291906,0.00034570694,0.0012508035,7.212162e-06,0.9933652,0.0017889738
1.9967556e-06,2.9116869e-05,0.99316,1.6748905e-05,0.0008665621,0.0014330149,0.01358819,6.0796738e-06,0.9912106,3.5226345e-05
0.0,0.0033986866,4.87864e-05,0.99986184,4.544854e-05,0.0021257102,0.31478447,0.0,0.4449832,0.00031459332
7.95722e-05,0.0,0.00050860643,7.5131655e-05,3.0398369e-06,8.2433224e-05,7.882714e-05,4.887581e-06,1.898408e-05,0.9998443
0.06909168,3.3974648e-06,0.005541116,3.758073e-05,0.00019326806,0.00057023764,0.003540486,1.0848045e-05,0.75789136,0.00716573
0.0012185574,7.1525574e-07,0.00018271804,0.00019297004,0.0004284978,0.0011321902,0.008578777,0.00010794401,0.013723254,0.15216842
0.993743,5.9604645e-08,5.4568052e-05,7.1525574e-07,2.3245811e-06,0.0003952384,0.0008022487,6.7442656e-05,1.4364719e-05,0.0009867847
0.97430533,0.0,1.9609928e-05,1.0788441e-05,4.7683716e-07,0.0007299483,0.000549525,0.00012305379,0.0005964637,0.004514396
0.0010330975,0.5579883,0.009897262,0.021320254,0.00019353628,0.061362207,0.02681142,2.4527311e-05,0.36488155,0.078182966
6.2942505e-05,1.3619661e-05,0.0007329583,9.536743e-05,4.8667192e-05,0.00025057793,0.0035244524,4.9859285e-05,0.17892656,0.49348766
1.180172e-05,1.9133091e-05,0.992364,0.00088727474,0.036957115,0.0017776489,0.009446174,9.474158e-05,0.97893274,4.8279762e-05
0.8298171,1.7881393e-07,0.0895783,1.6987324e-06,4.1127205e-06,0.0001872778,0.0010086,0.0048788786,0.00084263086,0.0005752444
0.0,0.00017467141,0.17373016,0.98036075,1.9907951e-05,0.00012588501,0.0021696389,2.9802322e-07,0.05627039,0.0075066984
0.00063332915,0.9579058,0.0018366575,0.00022783875,1.6480684e-05,0.023920864,0.013176173,1.04904175e-05,0.09124181,0.0046317577
0.002334237,2.0682812e-05,0.00036385655,3.877282e-05,3.2186508e-06,0.0006843507,0.011434883,0.00019183755,0.9941277,0.0011024475
2.682209e-06,1.3709068e-05,0.9990897,0.00019997358,0.00016906857,0.052920967,0.008255959,5.2452087e-06,0.46874183,1.4692545e-05
0.35098773,5.9604645e-08,3.5375357e-05,1.4692545e-05,2.0861626e-07,0.00034976006,0.00083872676,0.00025746226,0.5229343,0.0005518794
0.6054336,8.940697e-08,8.165836e-06,6.854534e-07,3.874302e-07,0.00021326542,0.00037500262,0.18468711,0.0028159916,0.0020175576
0.979342,0.0,4.0233135e-06,2.9802322e-08,4.4703484e-07,5.9872866e-05,0.00021418929,0.0028227568,7.4505806e-07,4.2796135e-05
6.854534e-07,4.348159e-05,0.00043812394,6.210804e-05,5.930662e-06,0.99993557,0.009859532,1.04904175e-05,0.96794134,7.7188015e-06
0.49633664,0.0,9.506941e-05,2.682209e-07,2.861023e-06,0.00079509616,0.0017594397,0.00016888976,0.6332279,0.000117242336
0.0028403401,2.9802322e-07,0.0008716583,5.0246716e-05,5.13494e-05,0.0008932054,0.0024797916,0.0018740892,0.96694195,0.0026837885
0.085103005,1.4901161e-07,0.00025692582,1.937151e-06,8.910894e-06,0.0006009042,0.0015902221,1.3560057e-05,0.8795508,0.0075788796
2.0861626e-07,0.000121206045,0.0037461817,0.0002872646,0.00016862154,0.9999973,0.005263984,7.4505806e-06,0.5647874,5.1259995e-05
4.61936e-06,0.00062409043,0.0028860867,0.029827327,0.00091713667,0.027344823,0.7638885,7.8082085e-06,0.0068698823,0.032234013
0.6039345,1.4305115e-06,1.8417835e-05,1.7285347e-06,6.556511e-07,0.00034207106,0.0007060766,0.00092345476,0.00026199222,0.5707674
7.390976e-06,5.9604645e-07,0.0005225837,0.00061917305,6.28829e-06,0.00026279688,0.002197057,0.98564523,0.0007300377,0.009867877
1.1622906e-06,1.7881393e-07,0.000100404024,0.001655221,0.9993895,0.000100672245,0.0052063167,4.3213367e-06,0.08804047,0.00078734756
1.3828278e-05,0.036258698,0.040314257,0.00010704994,0.0006453097,0.98959374,0.16254371,4.452467e-05,0.2328245,0.0011354089
0.98940575,8.940697e-08,9.447336e-06,1.5795231e-06,1.1920929e-06,0.00047028065,0.0009888709,1.1026859e-06,0.0018518567,7.149577e-05
2.1457672e-06,1.1920929e-07,5.2452087e-06,0.9999964,1.5497208e-06,0.00027889013,0.0017638206,0.0,0.0014561713,1.4603138e-06
0.0007713139,3.963709e-06,0.093266845,0.00084233284,0.005080223,0.0008916855,0.008011311,6.9111586e-05,0.82702553,0.008307129
0.005787283,1.0728836e-06,0.96000165,2.3901463e-05,0.0015383363,0.00097203255,0.004550904,0.0002565682,0.09897637,0.0076571107
0.008044988,3.6895275e-05,1.0550022e-05,4.798174e-06,4.7683716e-07,0.0043046176,0.98569465,6.109476e-06,0.0071885884,0.00022190809
0.35155255,2.6226044e-06,0.00014269352,9.188056e-05,3.3080578e-06,0.0015685558,0.0026108623,2.4348497e-05,0.49231255,0.031083167
2.4616718e-05,0.0037479699,0.0017236173,0.0021638572,0.0004453659,0.9544896,0.2885698,0.00026199222,0.055137128,0.013950497
0.0009253323,8.583069e-06,2.5719404e-05,1.2636185e-05,9.23872e-07,0.9308761,0.7073256,3.7252903e-06,0.0014129579,0.0007675886
0.89143336,1.4007092e-06,6.368756e-05,1.4275312e-05,2.2232533e-05,0.0066775978,0.027802229,3.257394e-05,0.0004759729,0.007948309
0.11122358,2.8908253e-06,0.004983604,1.2844801e-05,5.9217215e-05,0.00082209706,0.0037145615,4.172325e-06,0.0319075,0.5160691
5.9485435e-05,0.00032562017,0.0051979125,0.00032144785,3.504753e-05,0.99987376,0.018894434,0.00010612607,0.14214662,0.00046133995
0.9917656,0.0,1.7523766e-05,9.23872e-07,6.556511e-07,0.00028532743,0.0006047189,0.00043609738,6.043911e-05,3.927946e-05
0.0,1.5497208e-06,0.97068125,0.9999391,2.1547079e-05,0.00034874678,0.0044371486,2.9802322e-08,0.05746177,5.9604645e-08
0.8123098,4.7683716e-07,3.4838915e-05,1.4990568e-05,2.861023e-06,0.0016500652,0.0012878478,1.3053417e-05,0.11550823,0.0010344684
0.8949053,8.940697e-08,4.3034554e-05,1.3321638e-05,5.9604645e-07,0.0005208254,0.00084501505,0.18874654,9.596348e-05,0.0020076036
0.0013236105,0.0,0.00012135506,1.0162592e-05,1.6093254e-06,0.0013900697,0.001203686,0.10657561,3.7938356e-05,0.9421074
0.13902506,3.516674e-06,0.0005238056,1.6957521e-05,0.00011271238,0.0017429888,0.004933208,1.719594e-05,0.8297075,0.00405699
0.98007345,9.834766e-07,0.00039619207,5.185604e-06,8.34465e-07,0.0021266043,0.0034731328,4.3034554e-05,0.00023651123,0.012752116
0.15169042,3.5762787e-07,6.3329935e-05,2.4199486e-05,2.7686357e-05,0.0009037554,0.0019606054,1.8775463e-06,0.0030320287,0.7104995
0.0032662153,1.7881393e-07,0.0020929873,0.0038980544,0.96316946,0.00023472309,0.001963824,1.0430813e-06,0.008677125,0.003867805
0.98984367,2.9802322e-08,1.2904406e-05,3.5762787e-06,2.7120113e-06,0.0004029274,0.0006618798,0.00027170777,3.4213066e-05,0.0034709275
0.0006918311,0.06231484,0.00204736,0.0009032488,0.00029712915,0.00445953,0.12304965,5.364418e-06,0.61193097,0.10720801
0.93753314,5.9604645e-07,0.000115185976,6.109476e-05,1.0311604e-05,0.0017234385,0.002679348,2.592802e-06,0.037126392,0.0057864487
0.0032559931,6.1690807e-06,1.809001e-05,1.692772e-05,1.0073185e-05,0.00065740943,0.0106010735,4.172325e-07,0.97968566,0.015397996
2.9802322e-08,0.98847353,0.00186643,0.9987079,0.00017938018,0.0016486049,0.013264984,0.0,0.56368244,0.000369668
0.99014795,8.940697e-08,1.2844801e-05,5.662441e-07,3.5762787e-07,0.00057172775,0.0021318197,0.00012919307,0.000121861696,0.00036743283
0.9701785,0.0,9.62615e-06,5.364418e-07,1.7881393e-07,4.836917e-05,0.00019681454,0.0025951564,1.5795231e-06,0.001875639
0.99617565,0.0,5.364418e-06,8.940697e-08,2.9802322e-07,0.00024664402,0.00028672814,3.0010939e-05,0.00018185377,7.998943e-05
0.93978274,1.7881393e-07,8.234382e-05,1.1175871e-05,3.784895e-06,0.0012834668,0.0021793544,2.6851892e-05,0.008131415,0.0032238364
0.17384997,1.2218952e-06,5.182624e-05,8.8989735e-05,3.784895e-06,0.0011835992,0.006433457,1.180172e-05,0.1067076,0.5360433
0.87764734,4.7385693e-06,0.0001668036,0.00041928887,8.7320805e-06,0.002159685,0.0048218966,0.000325799,0.00030565262,0.22393239
0.9798886,4.7683716e-07,0.00010037422,2.5331974e-06,1.7881393e-07,0.0012019575,0.0021748245,5.3048134e-06,0.00010064244,0.0136395395
6.4074993e-06,0.0,4.7683716e-07,3.5762787e-07,0.0,8.940697e-08,9.834766e-06,0.0,4.3541193e-05,0.9999513
0.0001475513,0.0,1.1920929e-07,8.940697e-08,0.0,0.0,1.0341406e-05,0.0,8.34465e-07,0.9999944
0.00057041645,0.9458141,0.015553653,0.48390713,0.00023007393,0.046714634,0.07771748,3.0994415e-06,0.0062885284,0.004826367
0.0003412068,0.99866533,0.02063328,0.00014135242,0.00010064244,0.010323286,0.0029982328,1.6629696e-05,0.049789757,0.00042113662
5.7458878e-05,1.5348196e-05,0.0092102885,0.002851516,0.99824876,0.0003824234,0.0198327,9.23872e-07,0.046194702,0.0012263656
0.9934027,0.0,3.4570694e-06,1.4901161e-07,5.9604645e-08,0.00017252564,0.0001668632,8.326769e-05,7.7068806e-05,0.0004556179
0.00035980344,7.748604e-06,5.3793192e-05,5.725026e-05,2.7418137e-06,0.000343889,0.041187227,0.00038790703,0.9930347,0.0009303987
0.9934156,8.940697e-08,2.0503998e-05,2.7060509e-05,2.3841858e-07,0.0006991327,0.0010155439,5.0365925e-06,9.5397234e-05,0.0006785393
4.053116e-06,3.5464764e-05,7.8082085e-05,0.99998105,0.00032234192,0.001617372,0.0067156255,0.0,5.555153e-05,9.262562e-05
1.6510487e-05,2.115965e-06,0.9922597,0.0004962981,0.8063059,0.00029689074,0.0026066601,5.7190657e-05,0.8983054,0.00061023235
2.4408102e-05,6.645918e-06,0.0013768375,5.8591366e-05,7.1525574e-07,8.0138445e-05,0.00013971329,5.9604645e-08,0.0002039969,0.9924247
0.0001475513,0.0,1.1920929e-07,8.940697e-08,0.0,0.0,1.0341406e-05,0.0,8.34465e-07,0.9999944
3.054738e-05,8.940697e-08,2.6226044e-06,0.99998605,8.940697e-08,0.00020349026,0.0011396706,0.0,1.5169382e-05,9.924173e-06
0.9154933,1.1920929e-07,3.8415194e-05,4.053116e-06,2.592802e-06,0.0006092191,0.002665162,0.0027073324,8.639693e-05,0.008694708
0.124601066,7.1525574e-07,0.00042167306,1.4960766e-05,3.3974648e-06,0.0008132756,0.0025209486,0.00014710426,0.91584337,0.0016106963
0.99729705,0.0,5.185604e-06,3.5762787e-07,1.7881393e-07,0.0002554059,0.0004915297,5.841255e-06,3.284216e-05,0.00033441186
0.968704,5.9604645e-08,8.815527e-05,8.583069e-06,2.4139881e-05,0.0032042563,0.0023495257,2.849102e-05,0.00026893616,0.0008354485
0.03036058,9.301305e-05,3.4719706e-05,0.00015732646,1.7821789e-05,0.02334249,0.8963174,0.00032877922,0.024842083,0.0021627843
0.012177706,3.695488e-06,0.0009726286,0.05592251,0.00067412853,0.0010712147,0.0031574965,1.3828278e-05,0.40366963,0.15629253
0.092123866,1.7881393e-07,6.967783e-05,1.937151e-06,3.1471252e-05,0.00063097477,0.0022001565,5.8710575e-06,0.9581926,0.00024032593
0.98941934,2.9802322e-08,5.066395e-06,5.066395e-07,3.0696392e-06,0.0006299317,0.0005494952,0.0021120012,2.938509e-05,0.00017261505
9.23872e-07,0.022059888,0.07741985,0.99981153,0.000111699104,0.0016742647,0.0053439736,0.0,0.011307806,0.0003823042
1.7881393e-06,0.001219213,0.0119612515,0.9969975,0.013994902,0.00031989813,0.05325991,7.4505806e-07,0.92361104,0.0001348257
6.854534e-07,5.3048134e-06,0.9219647,0.9993098,3.963709e-06,0.0009227693,0.004300803,0.0,0.0021733642,6.109476e-06
0.9137187,3.5762787e-07,0.0009171665,1.31726265e-05,1.30832195e-05,0.0013463199,0.0026153922,0.00079756975,0.04882887,0.005060613
0.008104742,1.7881393e-07,2.1994114e-05,6.1690807e-06,6.2584877e-07,0.00027775764,0.0018004179,1.9967556e-06,0.9965645,8.46684e-05
0.011872739,7.972121e-05,0.00014615059,7.5101852e-06,2.8908253e-06,0.0010769665,0.025025249,1.3113022e-06,0.9390694,0.011089325
0.018788308,4.7683716e-07,0.00028768182,3.668666e-05,3.066659e-05,0.00032001734,0.0015003979,6.5773726e-05,0.9675126,0.0056741834
0.9939156,0.0,9.119511e-06,7.748604e-07,1.04010105e-05,0.00080779195,0.0007236898,1.4603138e-06,0.00014558434,0.0014163554
9.387732e-06,0.021117777,0.0027843714,0.99923813,0.0006609261,0.0027501583,0.08621594,5.9604645e-08,0.87565726,1.8894672e-05
1.4901161e-07,0.0008752048,0.88207334,0.00010588765,2.4318695e-05,0.044282585,0.8226667,9.834766e-07,0.9694773,6.8843365e-06
0.91822135,2.0861626e-07,6.625056e-05,1.8775463e-06,2.9802322e-07,0.00058823824,0.0008907318,8.34465e-06,0.23592675,0.00012421608
0.9947995,0.0,1.0639429e-05,3.5762787e-07,9.23872e-07,0.0006864965,0.0006762147,5.310774e-05,7.367134e-05,2.1249056e-05
7.95722e-06,1.0043383e-05,0.00037130713,0.99992716,0.0001720488,0.00056383014,0.006363809,2.9802322e-08,0.11878502,0.0001834333
6.3180923e-06,0.00012648106,0.047703564,0.9993392,0.088030785,0.0005084574,0.00749442,5.9604645e-08,0.0030852556,0.00013068318
0.004256636,0.959016,0.002911687,2.8014183e-06,4.7683716e-07,0.0031855106,0.012910426,2.3841858e-07,0.00069987774,0.00060361624
0.0019512773,1.2904406e-05,1.4305115e-05,2.3841858e-06,1.2099743e-05,0.0009326041,0.00064489245,5.8412552e-05,0.9964269,2.2619963e-05
0.00027251244,0.05594331,0.00087562203,0.0022262633,0.00010457635,0.17322165,0.54528534,5.2452087e-06,0.1858331,0.012960643
0.0046963096,0.6948909,0.056187898,1.1742115e-05,1.090765e-05,0.0070674717,0.040174395,1.4603138e-06,0.004559368,0.0020816326
0.9930083,0.0,1.9192696e-05,1.3411045e-06,1.7881393e-07,0.0008340776,0.00052917004,4.4703484e-07,0.003418982,0.00032946467
0.0001475513,0.0,1.1920929e-07,8.940697e-08,0.0,0.0,1.0341406e-05,0.0,8.34465e-07,0.9999944
0.026251048,4.6133995e-05,0.0012181699,3.0368567e-05,2.5331974e-06,0.00086838007,0.0069191456,0.006960273,0.40105662,0.14750716
0.007390827,9.23872e-07,1.3053417e-05,7.4505806e-07,8.583069e-06,0.0003527105,0.0015022755,0.000101715326,0.99626994,4.2438507e-05
0.0001065433,0.0,0.0007545352,1.9967556e-06,0.00024455786,3.8832426e-05,0.00013905764,1.1920929e-07,9.688735e-05,0.97572154
0.9967787,0.0,1.2278557e-05,2.9802322e-08,2.9802322e-08,0.0004605651,0.0018874109,1.0102987e-05,5.301833e-05,0.00035139918
0.99610066,8.940697e-08,7.301569e-06,4.172325e-07,1.6391277e-06,0.00043439865,0.00053846836,4.5776367e-05,1.0728836e-05,0.00097310543
0.0064724684,3.2782555e-06,9.715557e-05,2.0623207e-05,8.910894e-06,0.00037148595,0.0026977062,2.4974346e-05,0.99435556,0.00036361814
0.011175066,0.07296553,0.005474657,0.0009149909,1.0222197e-05,0.0063253045,0.0839999,6.824732e-06,0.011162698,0.28531837
0.016752094,4.3213367e-06,0.0017793179,2.977252e-05,2.9623508e-05,0.000724107,0.0034330785,0.0013899505,0.97124565,0.005646616
2.5331974e-06,0.0075449944,0.009315193,0.008539379,0.0011731088,0.9986508,0.11534467,0.000826627,0.3610735,0.002843976
0.00021338463,4.902482e-05,0.003944993,0.00012716651,3.287196e-05,0.02068618,0.014882058,0.0003733039,0.34962016,0.30166787
0.028142095,1.1622906e-06,1.2814999e-05,1.0222197e-05,1.54078e-05,0.0002975464,0.0022619963,6.2584877e-07,0.988973,0.0004079044
0.96213496,4.4703484e-07,0.0012980998,1.1026859e-06,6.2584877e-07,0.002583921,0.00096789,1.8656254e-05,0.00013172626,0.0029620528
0.017070025,1.4901161e-07,0.987278,9.924173e-06,4.053116e-06,0.0008625388,0.0032551289,5.298853e-05,0.0005044043,0.0007805228
0.98683894,4.4703484e-07,4.544854e-05,1.013279e-05,3.874302e-07,0.0016319454,0.004050821,4.5597553e-06,0.00031340122,0.00046017766
0.51473504,1.3113022e-06,0.0005200207,3.555417e-05,1.7881393e-06,0.0016249418,0.0017258525,0.0019378662,0.52424127,0.0043849647
4.172325e-07,0.9962846,0.00054726005,0.010696024,8.806586e-05,0.00088876486,0.002718687,8.940697e-08,0.5578474,0.010226369
7.688999e-06,1.1920929e-07,4.5895576e-06,0.99999464,6.854534e-07,0.0006156564,0.0016450584,0.0,2.1457672e-05,3.2484531e-06
8.34465e-07,0.00049602985,0.29700255,0.9513084,0.0027039945,0.00035732985,0.01009047,2.4735928e-06,0.9924099,4.0233135e-05
0.9972007,0.0,9.268522e-06,1.1622906e-06,4.172325e-07,0.00034412742,0.0004298389,1.2814999e-06,3.311038e-05,0.00044089556
0.011853337,1.3649464e-05,0.0030635,2.56598e-05,1.5348196e-05,0.99879456,0.015349269,0.000111192465,0.00584352,0.0010358691
0.9836452,4.172325e-07,0.00010636449,0.00012779236,1.8179417e-06,0.0009446442,0.0010018349,0.00023338199,0.00011536479,0.012015641
1.2516975e-06,0.00022220612,0.0011372268,0.00010243058,1.6093254e-06,0.97799754,0.20690459,4.720688e-05,0.9830438,2.7745962e-05
5.054474e-05,1.3828278e-05,3.6478043e-05,0.9999578,9.9629164e-05,0.00047945976,0.0048247576,0.0,0.00047436357,3.8266182e-05
2.0861626e-07,0.96068305,0.00454399,0.9992546,0.00019028783,0.0026612878,0.003434807,5.9604645e-08,0.35055682,0.00023791194
9.8496675e-05,4.5776367e-05,0.0038589835,0.00018456578,2.643466e-05,0.99999,0.0064495504,8.311868e-05,0.0030204058,5.403161e-05
0.044588476,1.1920929e-07,0.0001039803,2.3752451e-05,1.1116266e-05,0.0007059872,0.0012169778,2.1457672e-06,0.98487675,0.0001565218
0.15233925,5.9604645e-08,1.296401e-05,3.6358833e-06,1.1920929e-07,8.9496374e-05,0.00024598837,5.364418e-07,0.87174344,0.00015595555
0.013447076,2.9802322e-08,0.00010123849,0.0012540519,0.013305724,0.0003771782,0.002959609,0.00013670325,0.5449493,0.012535602
0.00097185373,3.6358833e-06,0.13594297,3.9458275e-05,9.986758e-05,0.00030073524,0.002367109,2.9057264e-05,0.9966663,9.1820955e-05
0.84899664,4.172325e-07,0.00023427606,7.4505806e-07,3.7550926e-06,0.019337773,0.0013175905,0.00046625733,0.0005097389,0.012815207
