0,1,2,3,4,5,6,7,8,9
0.98683053,2.9802322e-08,1.3411045e-06,8.612871e-06,0.0,0.0016979277,0.00056925416,5.364418e-07,0.0013328195,0.008589327
0.8873942,0.0,1.1622906e-06,1.1980534e-05,0.0,0.00010308623,0.00024080276,0.023392081,3.0070543e-05,0.0025694668
3.516674e-06,6.854534e-07,0.0024084449,0.0021699667,0.9159807,0.9999918,0.0012966394,2.7120113e-06,0.0009215772,3.3080578e-06
0.0,1.4305115e-05,5.9604645e-08,0.99996907,1.7881393e-07,0.010951817,0.97350514,0.0,3.951788e-05,6.556511e-07
0.00040960312,0.0,0.0,0.9999012,0.0,0.00057035685,0.00047272444,0.0,0.00096064806,1.2516975e-06
0.9905397,0.0,5.9604645e-08,2.9802322e-08,0.0,5.760789e-05,0.00019437075,0.00015333295,4.7385693e-06,2.1487474e-05
0.0030254424,0.0,3.8444996e-06,9.4771385e-06,1.1920929e-07,0.0006303787,0.0042006075,1.4901161e-07,0.98650086,0.001683265
2.682209e-07,0.0,5.4448843e-05,0.9999987,0.99645555,0.0013479292,0.0012444854,1.1920929e-07,0.00028428435,2.9802322e-08
8.34465e-07,1.1920929e-07,1.4007092e-06,0.78024673,1.6987324e-06,0.000116586685,0.002034396,7.6293945e-06,0.999804,1.8179417e-06
6.4074993e-06,1.7285347e-06,1.1026859e-06,4.172325e-07,1.6093254e-06,0.0034604073,0.9994782,5.1915646e-05,0.0005643666,0.00058704615
0.00048297644,0.0,0.61777717,2.2739172e-05,3.8802624e-05,0.00024166703,0.005950421,5.096197e-06,0.9901433,6.0617924e-05
0.001916498,0.0,9.727478e-05,3.874302e-07,6.943941e-06,2.002716e-05,0.00067421794,2.3841858e-06,0.99884737,2.5331974e-06
3.5762787e-07,0.25174183,0.00042429566,0.9871392,2.2351742e-06,0.0025962591,0.014723271,2.9802322e-08,0.8252721,9.414554e-05
2.5331974e-05,0.993346,0.0014007688,0.0005739331,2.3514032e-05,0.0021739304,0.00023216009,2.3245811e-06,0.045987964,0.0010089874
0.105745375,0.0,1.1920929e-05,7.748604e-07,0.0,0.00037291646,0.0011701882,0.00014480948,0.9598243,9.828806e-05
0.0011324584,0.023137748,0.0006855428,0.00011110306,5.671382e-05,0.0017559826,0.26919812,3.0398369e-06,0.7539456,0.0026886165
1.8775463e-05,0.0,4.0233135e-06,0.9999851,3.08156e-05,0.00045397878,0.0020130575,2.9802322e-08,0.12527704,2.0563602e-06
0.99343467,0.0,2.7120113e-06,2.0861626e-06,0.0,0.0008612871,0.00016227365,1.7881393e-06,0.0003029704,0.00514099
1.3113022e-06,0.0016770363,0.21259576,3.2305717e-05,0.0014187992,0.012601793,0.88796127,0.00028854609,0.766648,0.0003760457
1.3768673e-05,1.3113022e-06,3.784895e-06,0.0001527965,2.1368265e-05,0.0007882118,0.85076606,0.00022625923,0.91763085,0.0002104938
0.9959285,0.0,2.682209e-07,2.9802322e-08,0.0,0.00051409006,0.00020304322,7.688999e-06,1.66893e-05,0.00041601062
0.04947087,6.5267086e-06,0.67618436,0.0062714517,0.0,0.0015560389,0.00095942616,7.215142e-05,0.0002039671,0.00033935905
0.9973857,0.0,0.0,3.2782555e-07,0.0,0.00025194883,0.000266999,9.23872e-07,2.798438e-05,0.0004892945
0.0009960234,6.633997e-05,0.0016063154,0.024452418,6.198883e-06,0.0009691417,0.0028363168,1.8656254e-05,0.9906223,0.0029743016
0.0005902648,0.0,2.1457672e-06,4.7683716e-07,1.4901161e-07,7.8469515e-05,0.00089502335,3.1590462e-06,0.9914316,0.0013831258
2.115965e-06,0.00023436546,0.10652709,3.2514334e-05,0.0011927485,0.90261924,0.023040026,0.00039955974,0.04033664,0.007991403
0.0031806529,0.005268723,0.00037395954,2.9802322e-07,4.7683716e-07,0.0013996661,0.2717615,0.00011956692,0.00010997057,0.029249787
0.71896106,0.0,1.2814999e-06,0.0,0.0,6.1005354e-05,0.00017273426,0.12198138,8.696318e-05,0.00019532442
0.011343509,0.0,3.7550926e-06,2.503395e-05,8.940697e-08,1.3142824e-05,0.00023239851,0.9923842,0.0047353804,0.00013637543
2.2947788e-06,0.9954202,0.00011956692,0.3468868,2.4735928e-06,0.0071887076,0.008158743,5.9604645e-08,0.9939512,5.340576e-05
3.8057566e-05,1.7762184e-05,1.1920929e-07,1.3113022e-06,2.0861626e-07,0.0016993582,0.9961439,1.7881393e-07,0.006182641,0.0028387606
7.122755e-06,6.4074993e-06,8.34465e-07,6.2286854e-06,5.662441e-07,0.005164236,0.9981028,1.5199184e-06,0.0514704,7.95722e-05
0.0023945868,2.5629997e-06,7.033348e-06,5.662441e-07,1.4007092e-06,0.0007392168,0.9933101,1.7881393e-07,5.1379204e-05,4.2438507e-05
9.506941e-06,0.0,3.5762787e-06,0.99996483,0.00012633204,0.0005827546,0.004276693,2.1457672e-06,0.00015872717,5.0365925e-06
0.79270244,0.0,1.3411045e-06,5.364418e-07,6.854534e-07,0.00020086765,0.00030261278,2.861023e-06,0.37007612,0.0003401041
0.9990425,0.0,2.0861626e-07,0.0,0.0,0.00088617206,0.00021311641,1.7881393e-07,3.516674e-06,5.7160854e-05
0.94203913,0.0,8.6426735e-07,8.6426735e-07,0.0,0.0023459792,0.0028924048,4.172325e-07,0.042103797,0.007350713
0.99852717,0.0,0.0,2.3841858e-07,0.0,0.00037813187,0.00016182661,5.9604645e-08,1.7523766e-05,0.00014305115
0.97540706,0.0,2.9802322e-06,1.7881393e-07,8.940697e-08,0.0013670921,0.0008665323,1.3411045e-06,3.2365322e-05,0.02062273
6.6667795e-05,0.0,7.1525574e-07,1.8775463e-06,0.0,9.781122e-05,0.0015917122,4.9471855e-06,0.9999335,5.453825e-06
1.2218952e-06,6.854534e-07,0.9709382,0.0026112199,0.00043055415,0.00011059642,0.0009879768,0.00022220612,0.9930849,5.0485134e-05
0.6319273,5.9604645e-08,1.4901161e-06,3.6597252e-05,2.3812056e-05,0.0010286868,0.001157105,8.940697e-08,0.28672537,0.0012285411
6.2584877e-07,1.1026859e-06,0.008999914,0.00018590689,8.672476e-05,0.99999964,0.0040725768,9.1046095e-05,0.10357493,4.440546e-06
3.874302e-07,0.9995098,9.447336e-06,0.0016725957,4.798174e-06,0.0007480979,1.9580126e-05,1.1920929e-07,0.99314153,7.212162e-06
0.0010299981,0.0,4.9471855e-06,2.1666288e-05,0.0,0.0005387068,0.013475031,3.8027763e-05,0.9993585,0.00010511279
0.004561633,0.0,2.9802322e-07,1.4007092e-06,8.940697e-08,1.1205673e-05,3.963709e-05,0.99288094,0.011271417,0.00022637844
0.18343464,0.0,0.00015088916,2.682209e-07,2.026558e-06,0.0002322793,0.00086051226,1.6987324e-06,0.9385349,0.00026866794
0.0073047876,1.758337e-06,0.00016847253,0.0013836324,7.2717667e-06,0.0012709796,0.0048731863,0.0002514124,0.96256936,0.003430307
5.453825e-06,0.9978168,0.0002193451,0.0009486377,2.43783e-05,0.0068353117,8.9854e-05,1.7881393e-07,0.57826316,0.00013700128
0.9970576,0.0,2.9802322e-08,3.2782555e-07,0.0,0.0010791123,0.00028061867,2.9802322e-07,0.00036340952,3.9488077e-05
0.00010034442,1.1324883e-06,0.008624136,1.1831522e-05,3.8444996e-06,0.67826885,0.01635623,0.0002551973,0.0030488074,0.0015874803
4.4703484e-06,0.99927104,6.610155e-05,9.75728e-05,2.527237e-05,0.00566864,0.0001142025,7.1525574e-07,0.009744406,0.00021612644
1.1920929e-07,1.0579824e-05,0.00026246905,2.592802e-05,7.867813e-06,0.9999999,0.0032248795,2.1457672e-06,0.5644908,1.54078e-05
0.24843052,0.0,6.2584877e-07,0.00010871887,0.0,0.0013348162,0.0006788075,0.0010049343,0.648435,0.0033202171
0.96558607,9.23872e-07,2.8163195e-05,3.3974648e-06,6.3180923e-06,0.0007210374,0.0005173683,1.3113022e-06,0.0014298558,0.024117678
2.0861626e-06,0.99987566,4.261732e-06,0.00025984645,8.171797e-05,0.010067999,0.00013330579,2.9802322e-08,0.13590452,4.8935413e-05
0.80756176,2.3841858e-07,4.5895576e-06,2.3841858e-06,0.0,0.0020426214,0.0021089017,9.894371e-06,0.08464277,0.046901435
1.8805265e-05,0.9989816,0.0011224747,0.0008225441,7.748604e-07,0.016123682,0.00084525347,1.7404556e-05,0.0033676922,0.0006082952
0.9663176,0.0,6.2584877e-06,2.9802322e-08,0.0,0.00048735738,0.0003604591,0.0014816523,0.0040190816,0.0013403594
1.9073486e-06,0.9995135,4.529953e-06,0.00021213293,2.2023916e-05,0.0028217435,6.848574e-05,0.0,0.06516874,0.0006274283
0.9975412,0.0,1.66893e-06,2.9802322e-08,0.0,0.00072160363,0.00026527047,1.7940998e-05,0.00012630224,5.9336424e-05
0.019658118,2.3245811e-06,9.924173e-06,2.5629997e-06,4.172325e-07,0.93273044,0.016518593,1.013279e-06,0.36324927,0.00079217553
1.2040138e-05,1.9073486e-06,0.0009774268,0.0012287498,0.94677997,0.99990463,0.0019578636,7.343292e-05,0.002809763,0.00010019541
1.4215708e-05,2.771616e-06,0.0,0.0,0.0,1.013279e-06,0.00010085106,0.0,0.035278887,0.9953902
0.0037314594,1.129508e-05,0.0006452799,8.493662e-06,3.5464764e-06,0.00082823634,0.018458575,1.7881393e-06,0.6148833,0.23618123
0.9963013,0.0,2.592802e-06,1.4901161e-07,0.0,0.00035211444,0.00019216537,4.4614077e-05,8.097291e-05,0.00020262599
0.99147224,0.0,0.0,2.9802322e-08,0.0,0.0006123185,7.8082085e-05,0.0018093288,3.9696693e-05,0.000103116035
1.1026859e-06,0.0,2.849102e-05,6.2584877e-07,0.00024724007,7.7188015e-06,0.0013309419,4.172325e-07,0.999841,0.00023913383
0.0012459159,7.748604e-07,0.00066027045,0.00024354458,8.85129e-06,0.0005380213,0.0013623834,0.6596122,0.43842256,0.0057720244
0.0076592565,0.0,8.940697e-08,8.940697e-08,0.0,1.013279e-06,0.000123173,0.9943317,1.707673e-05,8.076429e-06
0.26992753,0.0,2.1755695e-06,9.149313e-06,0.0,0.00045374036,0.00019410253,1.7881393e-07,0.9231651,0.00066548586
0.9897474,0.0,1.7881393e-07,1.1920929e-07,1.1920929e-07,0.00035831332,0.0002411902,1.7911196e-05,0.000428766,0.0005566478
2.142787e-05,2.9802322e-07,1.0550022e-05,0.9999793,6.556511e-06,0.0019027889,0.0028147101,2.0861626e-07,0.0012977123,2.861023e-06
0.00033172965,2.9802322e-08,3.5762787e-07,0.9999336,0.0,0.00049710274,0.0018293858,1.1920929e-07,0.00052952766,3.5762787e-06
0.0002284348,0.0,3.3974648e-06,0.99997514,2.9802322e-07,0.0006477833,0.0006970167,0.0,0.0003682673,1.1026859e-06
0.0003015697,0.0,1.4901161e-06,2.7775764e-05,4.7683716e-07,0.0010130703,0.007854581,2.771616e-06,0.99935734,0.0001938343
0.2366243,0.0,6.0796738e-06,5.5730343e-06,5.364418e-07,0.00039118528,0.00062438846,0.8727461,0.00034028292,0.0034175217
0.97545147,0.0,2.2560358e-05,1.7881393e-07,0.0,0.0004349947,0.0015290678,0.0012693405,0.00054365396,0.0014064312
0.7422198,0.0,1.3113022e-06,1.758337e-06,5.9604645e-08,0.00022011995,0.00017648935,0.006506026,0.057692677,0.00013068318
0.768252,8.940697e-08,6.854534e-07,0.035243154,3.5762787e-07,0.0013216138,0.00047659874,3.0368567e-05,0.0037311316,0.0007956624
0.99176,0.0,3.2782555e-06,1.7881393e-07,0.0,0.004229039,0.0006836355,0.00027424097,0.00022804737,0.0012010038
0.23937467,0.0,3.4570694e-06,5.543232e-06,0.83305806,0.00014403462,0.00054588914,2.9802322e-07,9.3340874e-05,0.0003104806
0.99164,0.0,6.234646e-05,5.9604645e-08,0.0,0.00046750903,0.00045627356,1.2993813e-05,0.00068187714,4.2527914e-05
0.9944917,0.0,2.0861626e-07,8.940697e-08,8.940697e-08,0.0017527044,0.00038081408,5.155802e-06,9.995699e-05,0.0009037256
0.00044479966,0.0,0.00012671947,0.00035870075,0.0017752945,0.000100016594,0.0010384023,0.0016214848,0.9983634,2.2768974e-05
0.99037695,0.0,1.642108e-05,2.9802322e-08,2.9802322e-08,0.0007445216,0.0007828474,0.00039470196,6.482005e-05,0.00046095252
1.9967556e-06,1.1920929e-07,0.0002348125,3.71933e-05,2.413988e-06,0.96871287,0.024279058,4.041195e-05,0.97652197,1.1920929e-05
8.34465e-07,5.51939e-05,0.0001874268,0.00014686584,0.0029400587,0.0025157332,0.023139179,5.722046e-06,0.012145042,0.96739924
2.592802e-06,3.2782555e-07,3.5762787e-07,0.99999857,3.874302e-07,0.0007330477,0.006889075,0.0,0.0039763153,1.4901161e-07
2.8908253e-06,0.9995155,6.863475e-05,0.0070949197,0.11448473,0.006048918,2.655387e-05,8.940697e-08,0.3339774,4.529953e-05
0.060169995,0.0,6.684661e-05,1.3709068e-06,3.08156e-05,0.00021600723,0.001308322,0.00019788742,0.92698145,0.001249671
0.95067775,0.0,4.7683716e-07,1.2218952e-06,0.0,0.00082951784,0.0007646084,2.4437904e-06,0.10496667,0.0008059144
1.013279e-06,0.0,0.0,7.4505806e-07,0.0,2.9802322e-08,4.261732e-05,0.0,5.662441e-07,0.9999913
0.07676548,0.0,1.4603138e-06,2.0563602e-06,0.0,4.4822693e-05,0.00011783838,0.94257945,0.0018825829,0.0011287928
0.0,0.00020954013,0.7513486,0.00403291,0.0019514263,1.0,0.0021264255,0.0002965331,0.18568859,1.013279e-06
0.86827034,0.0,1.1920929e-07,1.6987324e-06,1.1920929e-07,0.00017267466,0.000323534,1.4901161e-07,0.116187036,0.00018441677
1.3887882e-05,2.399087e-05,0.94318587,0.00010332465,0.00048744678,0.0014953911,0.071933776,5.00679e-06,0.9892107,3.2514334e-05
0.8936057,0.0,2.2649765e-06,8.2701445e-05,8.940697e-08,0.00067156553,0.0015412569,0.010324091,0.0005886555,0.0036258101
2.0861626e-07,0.004112333,1.7881393e-07,0.99989736,2.2053719e-06,0.034878016,0.7643181,1.4901161e-07,0.06602028,3.8444996e-06
6.824732e-05,0.0,2.4020672e-05,5.751848e-06,7.1525574e-07,2.0354986e-05,0.00013023615,0.0044210553,0.0017861724,0.95805603
0.97588074,0.0,6.3329935e-05,8.6426735e-07,1.4901161e-07,0.0004260242,0.00041779876,0.00090777874,0.0016393661,0.000603497
0.9649044,0.0,9.447336e-06,1.1563301e-05,4.5895576e-06,0.0007855594,0.0009492636,4.3213367e-06,0.007663846,0.0019859672
4.556775e-05,0.0,4.7802925e-05,0.00014227629,0.0005284548,1.4841557e-05,0.003240198,3.5464764e-06,0.99922734,0.00029200315
0.0271658,0.0,1.2218952e-06,3.1650066e-05,3.7431717e-05,0.00033339858,0.00050511956,6.8843365e-06,0.30967054,0.18410894
0.97735864,0.0,3.33786e-06,1.40070915e-05,1.1920929e-07,0.0026889443,0.0008419156,4.887581e-06,0.00021985173,0.0007991791
0.00010231137,0.2160775,0.00065773726,0.54919666,4.23193e-06,0.021672279,0.02747941,2.9802322e-07,0.01796794,0.040875167
3.9756298e-05,1.1026859e-06,3.7282705e-05,0.00018146634,2.5331974e-06,0.99998766,0.0029282272,0.0020347238,0.0015855432,0.0001001358
2.3186207e-05,1.0043383e-05,0.042986542,0.9996197,0.0014612675,0.0032086074,0.0022524,2.7418137e-06,0.15244135,0.00040858984
0.86870253,0.0,5.5134296e-06,1.4305115e-06,5.9604645e-08,0.0012521148,0.0012071729,5.9515238e-05,0.018094271,0.0233078
3.33786e-05,0.0,1.0728836e-06,0.99998176,2.682209e-07,0.0022400916,0.0011670887,2.9802322e-08,0.0013560057,9.834766e-07
0.99518096,0.0,0.0,1.7881393e-07,0.0,0.00011855364,8.7589025e-05,2.7477741e-05,0.00031891465,3.415346e-05
0.00012671947,5.9604645e-08,0.0027056634,0.61607194,0.9986518,0.0008369982,0.0011114478,5.1259995e-06,0.001791954,2.169609e-05
0.0,0.998209,3.5762787e-07,0.3681613,0.0,0.00047057867,0.0005225241,0.0,0.998647,1.847744e-06
0.99249893,0.0,5.9604645e-07,1.5795231e-06,0.0,0.0008661151,0.001214534,2.9802322e-08,0.00024291873,0.00069096684
8.34465e-07,0.00047940016,0.9759271,0.00031724572,0.00010582805,0.0009354949,0.002264887,1.1354685e-05,0.9840407,0.000115036964
0.9263505,0.0,0.0027711987,1.7881393e-07,1.8775463e-06,0.002993524,0.00083485246,0.00011116266,0.0006121099,0.016851485
2.0563602e-06,2.5331974e-06,3.2007694e-05,5.632639e-06,1.3023615e-05,0.98757714,0.0210284,2.4437904e-06,0.9198817,6.225705e-05
5.066395e-07,8.067489e-05,0.030697107,0.0017964244,0.00027373433,0.9999999,0.0045520663,2.7447939e-05,0.04543799,5.6922436e-06
3.7908554e-05,4.7683716e-07,6.788969e-05,0.999949,1.4305115e-06,0.00123173,0.039220244,7.4505806e-07,0.0015125871,2.1547079e-05
6.4074993e-06,0.0,2.4437904e-06,1.4007092e-06,1.7881393e-07,8.5532665e-06,3.4868717e-05,0.99959886,0.0006541014,0.0002837181
0.99160504,0.0,2.9802322e-07,8.940697e-08,4.172325e-07,0.0003042221,0.00032123923,3.5762787e-07,0.0004837215,0.0009442866
0.9905967,0.0,1.7881393e-07,4.172325e-07,5.9604645e-08,0.0009447932,0.00025367737,5.7846308e-05,0.00025382638,0.0003684163
0.9984976,0.0,6.2584877e-07,5.9604645e-08,0.0,0.00048205256,0.0004812181,1.3411045e-06,3.749132e-05,0.00018683076
0.42554188,0.0,6.2584877e-07,1.9580126e-05,0.0,0.00409323,0.00050231814,2.9623508e-05,0.8189336,0.0018539131
0.42614323,3.835559e-05,1.4901161e-05,0.00012725592,1.8507242e-05,0.0007234514,0.001339972,1.7285347e-06,0.27409917,0.028363943
1.013279e-06,0.0,0.0,7.4505806e-07,0.0,2.9802322e-08,4.2706728e-05,0.0,5.9604645e-07,0.9999913
0.00032120943,5.0365925e-06,0.0009472072,1.0997057e-05,8.940697e-08,7.647276e-05,0.0028701723,4.7683716e-07,0.18007773,0.9099746
1.8000603e-05,0.89500713,0.007091671,0.0011759996,0.00023940206,0.0009714961,0.0003527105,0.0016545951,0.003781855,0.4070146
0.010278225,0.0,2.503395e-06,4.1127205e-06,7.122755e-06,0.0004554689,0.0029373765,1.937151e-06,0.9801147,0.0033486784
0.96292615,0.0,4.130602e-05,1.1622906e-06,6.854534e-07,0.0026097894,0.0006367266,9.0777874e-05,0.005938977,0.011710048
2.7418137e-06,0.99863505,0.00018364191,0.00015640259,0.00019788742,0.024261534,0.0005566478,1.7881393e-07,0.107711405,5.340576e-05
0.005241424,0.0,9.1552734e-05,1.5497208e-06,5.9604645e-08,0.00024074316,0.0015816689,8.910894e-06,0.9881731,0.0013171136
0.00044119358,2.2947788e-06,1.5497208e-06,2.9206276e-06,3.656745e-05,0.014626652,0.9769821,4.6014786e-05,0.00031632185,0.0041796267
0.96692777,2.9802322e-08,1.1920929e-07,2.0861626e-07,0.0,0.00052171946,0.0002193749,2.0861626e-07,0.030691087,0.0012869239
5.662441e-07,0.99951077,6.777048e-05,0.70579547,0.00022801757,0.008953154,0.0002245903,2.9802322e-08,0.04294437,8.529425e-05
7.748604e-07,3.874302e-07,0.00024729967,0.9998486,0.0033729374,0.00027096272,0.0037944913,2.4437904e-06,0.0005463362,0.0004924238
0.7777387,0.0,1.1533499e-05,0.027766347,3.3825636e-05,0.0028394759,0.0011768341,1.9669533e-06,0.0035044253,0.0029511154
0.30779493,5.00679e-06,1.5676022e-05,1.4901161e-06,1.1920929e-07,0.0005989969,0.0014163852,6.2584877e-07,0.72645867,0.010071874
0.2217333,1.1920929e-07,0.0010598004,7.6293945e-06,4.4703484e-06,0.0004248619,0.0018451512,8.6426735e-07,0.8570373,0.00010871887
3.1024218e-05,0.0,1.2516975e-06,1.168251e-05,6.6161156e-06,5.0246716e-05,0.0008700192,1.2516975e-06,0.9995773,2.2858381e-05
0.231989,1.1920929e-07,1.9073486e-06,9.119511e-06,2.9802322e-07,0.000793159,0.00088086724,1.0579824e-05,0.78905994,0.002317965
0.6547934,0.0,1.3113022e-06,4.440546e-06,7.1525574e-07,0.0005452633,0.00067713857,0.002892971,0.05288434,0.000103890896
0.9792821,8.940697e-08,6.198883e-05,1.630187e-05,5.9604645e-08,0.009365261,0.0015293658,4.6789646e-06,0.0016741753,0.00362283
0.9983026,0.0,2.0861626e-07,8.940697e-08,0.0,0.00092989206,0.00037905574,4.0233135e-06,4.0709972e-05,0.00022229552
7.4505806e-06,3.874302e-07,2.9802322e-07,0.99999404,1.7881393e-07,0.006325096,0.02949375,1.7881393e-07,0.00049614906,2.3841858e-07
0.09170133,3.5762787e-07,2.0563602e-06,2.592802e-05,2.9802322e-08,0.006871313,0.0030721724,1.0728836e-06,0.9526151,0.0005300343
0.97148824,0.0,5.364418e-07,0.0,0.0,0.0002091825,0.00017410517,0.006338984,0.0015781224,0.0001796186
0.99704194,0.0,6.2584877e-07,5.364418e-07,0.0,0.0012742281,0.001822859,1.8775463e-06,9.328127e-06,0.00024566054
0.0031092763,0.0,0.00011026859,1.6391277e-06,5.9604645e-08,0.00066164136,0.0051830113,7.390976e-06,0.99085873,0.0012418926
0.9752637,0.0,3.2544136e-05,3.3676624e-06,5.9604645e-08,0.01390487,0.000598073,3.0845404e-05,0.007960558,0.00074759126
0.4424451,0.0,7.3075294e-05,2.503395e-06,9.23872e-07,0.0022457838,0.0012107193,2.0742416e-05,0.31705278,0.009025574
0.0017569363,0.9491458,0.0005020797,0.0004904568,2.9236078e-05,0.008199036,0.002160877,2.2351742e-05,0.0017127395,0.020888686
8.162856e-05,2.413988e-06,1.4901161e-07,0.0005466044,0.0,0.0011493862,0.99605143,7.814169e-05,4.938245e-05,0.00020813942
0.000520885,2.130866e-05,0.00013160706,5.605817e-05,7.301569e-06,0.8814241,0.09616348,0.0003388226,0.31412643,0.014748752
0.00033292174,8.940697e-08,2.6971102e-05,0.0004876256,1.6987324e-06,0.00086688995,0.005105108,1.7881393e-07,0.9980185,0.0002796352
0.20249236,2.3841858e-07,9.298325e-06,5.662441e-07,5.9604645e-08,0.00015699863,0.00018712878,5.2452087e-06,4.87566e-05,0.8551607
3.874302e-06,5.9604645e-08,1.8209219e-05,3.4838915e-05,0.0015431046,1.001358e-05,0.0006272495,0.90815187,0.2143499,0.0018556714
1.0967255e-05,0.9794301,0.00031253695,0.012965292,0.00015830994,0.0047104955,0.0056530237,2.682209e-07,0.014128298,0.0045947134
6.908178e-05,8.940697e-08,4.5597553e-05,0.99996746,1.1652708e-05,0.0008697212,0.0013567507,0.0,0.0016869307,1.1622906e-05
0.99854016,0.0,2.0861626e-07,5.9604645e-08,0.0,0.00038683414,0.00021412969,4.172325e-06,4.5001507e-06,2.3573637e-05
0.005597204,0.0,0.0001039207,2.95043e-06,2.2053719e-06,0.00024446845,0.00025707483,0.9769008,9.199977e-05,0.0016466379
0.0042358637,6.2584877e-07,7.1525574e-06,3.7372112e-05,1.1920929e-07,0.999148,0.00067943335,1.4901161e-07,0.028353274,1.5228987e-05
6.020069e-06,0.0,2.3841858e-07,0.0,0.0,2.9802322e-07,2.7447939e-05,2.9802322e-08,9.536743e-07,0.9999896
2.9802322e-07,0.986217,0.000218153,0.0018838942,2.0861626e-07,0.0014187694,0.000813812,2.9802322e-08,0.99948466,1.1026859e-06
0.0,8.3476305e-05,0.00022754073,0.9999915,0.00057813525,0.00072848797,0.102136075,2.1755695e-06,0.011757642,4.4107437e-06
0.0069847107,0.0,2.2292137e-05,1.6987324e-05,3.2782555e-07,0.00043576956,0.0020577312,1.3917685e-05,0.9936249,0.00029453635
1.013279e-06,1.1354685e-05,2.0861626e-07,7.4505806e-06,2.9802322e-08,2.3961067e-05,0.8256079,2.8014183e-06,0.99593496,0.0011290312
0.9652301,0.0,5.4836273e-05,1.1622906e-06,1.4305115e-06,0.0013074279,0.0006839037,5.185604e-06,0.00088626146,0.027750611
0.2578531,0.0,5.3942204e-06,6.377697e-06,3.6358833e-06,0.00051882863,0.0009961426,4.2676926e-05,0.83875716,0.004208863
9.098649e-05,0.0,1.1920929e-06,4.169345e-05,1.49309635e-05,0.00044187903,0.009860307,4.5895576e-06,0.9985389,0.00016283989
0.00020840764,0.0018710494,7.981062e-05,0.0043037236,0.00017786026,0.022788465,0.92424166,2.1189451e-05,0.009845048,0.023392081
0.9948003,0.0,1.1920929e-06,1.8179417e-06,0.0,0.0017839074,0.0006196797,3.5762787e-07,0.00019153953,0.0016718209
0.99557215,0.0,1.1920929e-07,1.4901161e-07,2.0861626e-07,0.0014022291,0.0016186535,1.5348196e-05,0.0001282394,0.0003503263
1.385808e-05,0.0,0.000104665756,2.2888184e-05,1.4901161e-06,2.9802322e-05,0.0007441938,5.2779913e-05,0.019611657,0.99920934
0.98766446,3.2782555e-07,2.592802e-05,1.7881393e-06,0.0,0.021034122,0.02107653,4.068017e-05,0.00011497736,0.00255543
3.296137e-05,0.9949938,0.01239109,0.000315547,5.5104494e-05,0.007374525,0.0038467348,1.1950731e-05,0.01641348,0.0017806292
2.9802322e-08,1.4901161e-07,1.5795231e-06,0.9999945,0.9941559,0.00072818995,0.00092065334,1.7881393e-07,0.00089019537,8.940697e-08
5.990267e-06,1.4901161e-07,8.940697e-08,4.708767e-06,4.172325e-07,0.001655668,0.99983895,0.0,1.5765429e-05,4.6491623e-06
0.9711467,0.0,2.0861626e-07,8.940697e-08,0.0,3.9815903e-05,0.00017023087,0.0012891591,0.00012859702,0.00023403764
2.0861626e-07,0.0,0.99872327,2.5600195e-05,1.4573336e-05,0.000108003616,0.0028288066,1.5467405e-05,0.9920908,1.8775463e-06
0.0,0.00015071034,5.0008297e-05,0.000687629,2.9921532e-05,1.0,0.0021773279,1.4007092e-06,0.0077548325,3.1143427e-05
0.9828236,0.0,7.4505806e-07,5.364418e-07,1.0728836e-06,0.00029733777,0.0004962683,6.2584877e-07,0.0042740107,0.0012651384
1.2934208e-05,7.233024e-05,0.011885852,4.8279762e-05,2.7090311e-05,0.9999799,0.01839438,0.0036275387,0.0037574172,0.0003120005
0.00017046928,0.0,3.3676624e-06,0.00012457371,0.0,0.00019571185,0.0013694763,0.00029563904,0.99973196,1.1712313e-05
2.9802322e-08,0.00012236834,0.00047552586,0.015905708,1.3053417e-05,0.91779596,0.7728698,7.4505806e-07,0.43261206,0.00032702088
5.7816505e-06,0.99577343,0.00026923418,0.84339637,0.0001193285,0.0117892325,0.0026367307,2.3841858e-07,0.46391973,0.00018540025
7.748604e-07,5.990267e-06,0.00010091066,6.130338e-05,6.1690807e-06,0.99999994,0.0016918778,3.2186508e-06,0.043315113,7.1525574e-07
0.06437817,7.203221e-05,4.4375658e-05,0.0032713413,4.172325e-07,0.0005784333,0.0005508363,4.7683716e-07,0.0006406009,0.8470723
0.26951066,8.34465e-07,5.364418e-07,8.285046e-06,2.9802322e-07,0.0004976988,0.00079375505,2.9802322e-08,0.76562977,0.0013536811
0.53525144,2.682209e-07,7.748604e-07,3.8146973e-06,1.7881393e-07,0.000109404325,0.00026401877,0.0008902848,0.5992058,7.408857e-05
2.3841858e-07,0.00020185113,0.002005875,0.0048084855,0.00012052059,0.9999478,0.019042164,2.387166e-05,0.033441603,0.00037243962
2.0563602e-06,2.0086765e-05,0.8196937,2.9802322e-05,2.9802322e-08,4.8220158e-05,0.0006182194,4.3809414e-06,0.9987603,2.0563602e-06
0.0023712814,1.6838312e-05,0.0068106353,0.00015467405,0.0070436895,0.0007497966,0.0008574128,2.7120113e-06,0.2601702,0.039199322
4.9471855e-06,4.2915344e-06,0.0003502369,0.00015231967,8.970499e-06,0.9885912,0.014086753,6.467104e-06,0.9857803,0.00022649765
0.89818716,0.0,1.1146069e-05,9.23872e-07,6.854534e-07,0.0010851026,0.0007222295,0.00264889,0.014674604,0.002640754
0.8608265,0.0,0.00016117096,3.5762787e-07,4.7683716e-07,0.00067174435,0.0011792183,3.1888485e-06,0.023270935,0.008457601
0.000107973814,3.993511e-06,0.00031504035,0.00012692809,4.49121e-05,0.99939466,0.00849086,0.0019058287,0.022021413,0.004124224
3.710389e-05,2.3841858e-07,0.9942218,6.249547e-05,2.3305416e-05,0.00044363737,0.018891066,2.2739172e-05,0.98393416,1.7821789e-05
2.3841858e-07,0.002771318,0.8138689,5.671382e-05,8.3982944e-05,0.08060482,0.17608094,4.2438507e-05,0.9716728,0.000102072954
3.5762787e-06,0.0012055933,0.00036352873,0.94087505,0.004286915,0.0020543933,0.95930916,5.066395e-07,0.3583476,0.0007928014
0.014404744,1.2308359e-05,0.00011962652,0.88399565,0.9793383,0.012306064,0.013630062,1.7136335e-05,0.0036042929,0.00012102723
0.0036293268,0.0,0.9972141,4.9620867e-05,7.659197e-06,0.00042515993,0.0012440383,0.00016626716,0.00014665723,0.0001449585
0.06185758,0.0,2.1457672e-06,2.7418137e-05,6.2584877e-07,0.0004994571,0.0010721982,9.23872e-07,0.96748316,5.8591366e-05
3.1292439e-06,0.15447584,0.0008801222,0.9997483,0.097949356,0.0010734797,9.420514e-05,1.4901161e-07,0.005802512,5.3942204e-06
0.99592906,0.0,1.7881393e-06,1.7881393e-07,0.0,0.001078546,0.0005004704,6.854534e-07,0.00025355816,0.00016483665
0.004540533,0.0,8.34465e-07,6.2584877e-07,1.2814999e-06,0.0032210052,0.93726635,5.2154064e-06,0.0050557554,0.00023782253
0.00011575222,0.0,3.5762787e-07,3.6537647e-05,0.001904875,1.5467405e-05,0.0018437505,3.5762787e-07,0.9995562,2.6196241e-05
7.3611736e-06,0.0,1.7881393e-07,0.9999951,0.0,0.0005683303,0.00035002828,2.9802322e-08,2.5302172e-05,2.9802322e-08
0.9936106,0.0,3.2782555e-07,2.3841858e-07,2.682209e-07,0.00027498603,0.00036096573,1.9967556e-06,9.3609095e-05,4.8458576e-05
0.12769115,2.7418137e-06,3.555417e-05,0.9231945,2.95043e-06,0.00983721,0.0016217232,6.854534e-06,0.0036203265,7.772446e-05
0.010404468,0.0,1.6391277e-06,1.5497208e-06,0.028110445,4.145503e-05,0.0008855164,1.0728836e-06,0.97712994,9.685755e-06
5.4210424e-05,2.3841858e-07,5.1915646e-05,1.4305115e-06,1.1861324e-05,0.99999666,0.0009123087,2.3841858e-06,0.06851807,0.00014296174
0.9970559,0.0,4.172325e-07,1.475215e-05,1.4901161e-07,0.0006143153,0.00054866076,5.066395e-07,5.6564808e-05,0.00020265579
7.727742e-05,0.0,0.0017197728,0.9997644,7.778406e-06,0.0002656877,0.00077036023,5.9604645e-08,0.000110030174,4.172325e-07
0.7362556,1.7881393e-06,2.3782253e-05,2.0861626e-07,8.940697e-08,0.00035515428,0.00048798323,3.1977892e-05,0.0024514496,0.04071033
6.198883e-06,0.0,2.9802322e-08,1.5497208e-06,0.0,2.8967857e-05,0.00028124452,0.99998313,0.00028419495,3.746152e-05
0.00053340197,5.3942204e-06,4.801154e-05,3.015995e-05,1.3798475e-05,0.019894749,0.62037426,1.8715858e-05,0.1697976,0.007936299
0.00011482835,0.0,1.3113022e-06,9.417534e-06,4.827976e-06,2.8431416e-05,0.00047072768,5.9604645e-08,0.99988633,9.924173e-06
0.9979745,0.0,1.1920929e-07,8.940697e-08,0.0,0.00037699938,0.0002683401,4.7683716e-07,1.6182661e-05,3.412366e-05
0.052335143,8.940697e-08,0.002914697,2.208352e-05,7.5101852e-06,0.0029115677,0.0019298196,1.4960766e-05,0.790256,0.087547064
0.7855543,0.0,2.9802322e-07,1.1920929e-07,2.9802322e-08,0.58757025,0.0005450845,1.7881393e-07,4.374981e-05,0.0001244843
0.00027009845,0.0,2.3841858e-07,0.9999394,1.9967556e-06,0.0005223453,0.0009662807,2.9802322e-08,0.0007327795,4.6789646e-06
0.88311654,5.9604645e-08,0.00044468045,1.2904406e-05,8.583069e-06,0.0008559525,0.00082075596,2.2113323e-05,0.032949388,0.030938
3.20971e-05,0.5914483,0.103428125,0.0005170703,1.8298626e-05,0.00886187,0.084218085,0.00022724271,0.28825766,0.04406482
0.9918578,0.0,1.6093254e-06,3.0100346e-06,8.940697e-08,0.0012871623,0.0009280741,1.680851e-05,0.001725316,0.0006323755
0.9805448,0.0,1.79708e-05,1.4007092e-06,2.8848648e-05,0.0023525655,0.003632307,0.00019574165,0.00059348345,0.00050774217
9.0926886e-05,1.6450882e-05,0.0002015531,0.99968404,1.1056662e-05,0.7397491,0.012494504,2.3841858e-07,0.013428599,1.22487545e-05
0.99828416,0.0,0.0,2.9802322e-08,0.0,0.00029951334,8.583069e-05,1.1920929e-07,0.0005439818,4.836917e-05
9.834766e-07,0.00016832352,0.0009959638,0.00028771162,3.439188e-05,0.9982701,0.038388878,0.0004682541,0.014719844,0.015162796
4.172325e-07,0.99859285,8.60095e-05,0.000654608,4.708767e-06,0.00066915154,3.6597252e-05,8.940697e-08,0.9908229,3.33786e-06
0.9938675,0.0,2.3841858e-07,4.4703484e-07,0.0,0.00091955066,0.00048935413,4.172325e-07,0.0008970201,0.00032874942
0.9961232,0.0,7.748604e-07,9.23872e-07,0.0,0.0005812049,0.00024592876,2.0176172e-05,0.00014775991,8.749962e-05
0.040089697,6.854534e-07,8.314848e-06,1.2814999e-06,0.0,0.007253051,0.62742954,2.9802322e-07,1.6540289e-05,0.0013228357
0.0010200739,0.0,4.7683716e-07,9.745359e-06,0.0,6.54757e-05,0.00015321374,0.9990146,0.00013449788,3.668666e-05
5.5134296e-06,1.7434359e-05,3.5464764e-05,3.874302e-05,9.834766e-07,0.9999726,0.029470086,1.7404556e-05,0.009426624,0.00042322278
2.115965e-06,0.989696,0.00028192997,0.00059717894,8.046627e-07,0.8811845,0.0011757016,0.0,0.6077815,2.2888184e-05
0.99691474,0.0,6.2584877e-07,5.9604645e-08,0.0,0.0010831654,0.00042757392,2.503395e-06,6.699562e-05,0.0014415979
1.4871359e-05,0.0,1.937151e-06,0.40114376,2.115965e-06,0.00018402934,0.0011907518,3.5762787e-07,0.9997411,2.9802322e-07
0.9914485,0.0,2.3841858e-07,4.7683716e-07,0.0,0.0010589659,0.00044617057,5.3554773e-05,0.0005274117,0.0003683567
7.897615e-06,2.9802322e-08,2.1725893e-05,0.999997,0.0009305775,0.0010046363,0.0009370148,8.940697e-08,0.0007441342,2.682209e-07
0.0019254982,2.0116568e-05,3.6656857e-06,0.00010997057,0.0,0.99895656,0.085496366,6.2584877e-07,0.0013969243,0.0003120005
0.9621831,0.0,5.364418e-07,1.7881393e-07,0.0,0.00011602044,0.00015848875,0.003436923,3.799796e-05,0.00042164326
4.3809414e-06,8.940697e-06,9.179115e-06,1.758337e-06,1.2487173e-05,0.001626879,0.96605116,2.5629997e-06,0.95959795,0.00093731284
0.9170412,8.940697e-08,3.2424927e-05,5.00679e-06,1.1265278e-05,0.002105862,0.0024420917,0.0005314052,0.0028701723,0.042998224
0.98780674,0.0,9.834766e-07,4.4703484e-07,2.3841858e-07,0.0057379007,0.00076925755,7.748604e-07,0.00028312206,0.014170021
0.9782394,0.0,8.940697e-08,2.3841858e-07,5.9604645e-08,0.000106185675,0.00014260411,9.852648e-05,0.0005367696,3.272295e-05
0.03507465,0.0,3.2782555e-07,1.0371208e-05,1.7881393e-07,0.00026583672,0.00032043457,5.364418e-07,0.9845904,0.00052553415
0.014493793,0.0,0.00011062622,1.7285347e-06,3.2484531e-06,0.00037422776,0.0019767582,3.2186508e-06,0.9825758,0.00040227175
0.007489115,6.2584877e-07,0.00018528104,5.1677227e-05,4.3421984e-05,0.00020483136,0.0023225844,4.6521425e-05,0.21577221,0.7352787
0.08355534,0.0,5.453825e-06,1.2218952e-06,8.940697e-08,0.0014376342,0.0028490126,8.314848e-06,0.84906524,0.0012683272
1.013279e-06,0.0,3.606081e-06,0.99999905,2.9802322e-08,0.0001872778,0.0022444427,2.9802322e-07,0.00047522783,0.0
2.2858381e-05,7.748604e-07,1.2695789e-05,1.6391277e-06,2.0861626e-07,0.00041228533,0.021906793,2.3454428e-05,0.9911079,0.0017242432
1.9997358e-05,2.026558e-06,0.0006739497,0.9999831,9.930134e-05,0.0014132857,0.009659857,0.0,0.20885527,4.172325e-07
1.7493963e-05,0.0,5.662441e-07,0.99999905,1.7881393e-07,0.00045704842,0.0012395084,0.0,6.4343214e-05,1.7881393e-07
0.99281913,0.0,8.940697e-07,2.3841858e-07,0.0,0.00045064092,0.00027921796,0.00020298362,0.0001513958,0.00015094876
0.010181516,0.0,2.527237e-05,0.0001167953,0.008977652,0.00063583255,0.00056931376,0.00029361248,0.9509376,4.3988228e-05
8.940697e-08,5.146861e-05,5.093217e-05,0.95729375,0.9985532,0.0013797283,0.93868244,6.2584877e-07,0.007944435,3.5762787e-06
0.9979341,0.0,3.5762787e-07,1.4901161e-07,0.0,0.002182424,0.00043326616,2.2351742e-06,1.2069941e-05,4.10676e-05
2.9593706e-05,5.9604645e-08,1.6391277e-06,3.5971403e-05,1.4305115e-06,0.00010436773,0.001485914,4.172325e-07,0.999665,0.00023889542
3.0398369e-05,0.0,4.014373e-05,0.0007753968,4.133582e-05,0.00014796853,0.0011905134,3.5762787e-07,0.999484,2.3812056e-05
6.994605e-05,0.0,7.599592e-06,3.2156706e-05,6.377697e-06,0.0007516742,0.0045290887,5.057454e-05,0.99988675,4.8667192e-05
3.0487776e-05,0.9989657,0.0003119111,9.700656e-05,5.9336424e-05,0.002173543,0.00060513616,1.1920929e-07,0.70904064,0.00023269653
0.00018829107,8.940697e-08,2.3305416e-05,0.9984753,0.0013225973,0.018467635,0.0010825396,1.8179417e-06,0.0019540489,4.5865774e-05
2.682209e-07,2.0742416e-05,0.9955249,0.00020799041,5.0634146e-05,0.99997693,0.0072228014,3.2186508e-05,0.00469172,5.066395e-07
0.28079373,2.9802322e-08,3.8176775e-05,4.7683716e-07,0.0,0.81527305,0.00029310584,0.00017523766,0.0002821386,0.00013256073
1.7881393e-07,3.4213066e-05,0.014563531,8.752942e-05,1.9669533e-05,0.99999994,0.0012690425,2.1457672e-06,0.006162256,3.8444996e-05
0.9746015,0.0,7.969141e-05,7.748604e-07,8.940697e-07,0.0016732812,0.0005376637,0.0008328557,0.00071683526,0.003412217
5.158782e-05,0.0,4.172325e-07,7.098913e-05,2.9802322e-08,0.00048571825,0.0016262531,2.95043e-05,0.9999275,1.41859055e-05
0.0020264983,0.0,1.937151e-05,1.7881393e-07,0.0,0.00014844537,0.0010011494,1.7881393e-07,0.9977446,0.00066521764
0.0038977861,0.0,0.00012737513,1.3709068e-06,1.1920929e-07,0.00018388033,0.0027700365,0.00033202767,0.99185133,0.0006687641
0.55309856,2.9802322e-08,6.854534e-07,7.778406e-06,0.0,0.0007840991,0.0007894635,1.0639429e-05,0.73331016,0.0006970167
0.0001411438,1.7881393e-07,9.685755e-06,2.1487474e-05,0.0,0.0002284944,0.0021638572,3.5762787e-07,0.9997849,5.3346157e-05
7.280707e-05,0.98062253,0.0044914186,0.0015944242,0.00065642595,0.0043784976,0.009988397,5.543232e-06,0.05997801,0.061026394
0.00017660856,1.3053417e-05,0.009575933,0.9980502,0.0072965324,0.0029263496,0.002515316,9.536743e-07,0.17433506,1.1742115e-05
0.99114615,0.0,1.6391277e-06,1.4901161e-07,0.0,0.00047177076,0.00026404858,1.0758638e-05,0.009006679,0.00011634827
0.0008300841,0.0,1.31726265e-05,1.4692545e-05,1.4901161e-07,0.0002927482,0.00046679378,2.1576881e-05,0.99924076,5.2392483e-05
0.1808053,0.0,2.2143126e-05,8.171797e-05,4.2527914e-05,0.00082558393,0.0009382069,1.3023615e-05,0.84106135,8.225441e-05
3.963709e-06,0.006439686,0.036721617,0.0014256537,1.2516975e-05,0.023559332,0.08577162,2.2470951e-05,0.9931146,0.0008339286
0.12004456,0.00013017654,0.006169766,6.2286854e-06,0.0,0.0018256009,0.7191743,4.3094158e-05,0.0013640821,0.01795569
0.24755907,0.0,1.7940998e-05,6.2584877e-07,3.5762787e-07,0.00035959482,0.00058442354,7.748604e-07,0.0011435747,0.9485472
0.9899527,0.0,1.1920929e-06,7.4505806e-07,4.172325e-07,0.0015210509,0.0004029572,1.2904406e-05,0.00038310885,0.0009213984
0.98205817,0.0,1.3709068e-06,3.784895e-06,1.4901161e-07,0.0019868612,0.00068980455,4.6908855e-05,0.0012798309,0.004633248
0.91857135,0.0,8.821487e-06,0.0,2.9802322e-07,0.00019562244,0.00031003356,0.0044007897,0.0065505505,0.0017354488
1.1742115e-05,0.14568394,0.8241316,7.879734e-05,4.7326088e-05,0.015638828,0.050725102,8.4370375e-05,0.0070343018,0.00089749694
0.009390742,8.940697e-08,0.15412045,1.4901161e-05,3.5762787e-06,0.00034308434,0.0015648603,5.942583e-05,0.9801961,0.00052681565
4.5895576e-06,0.09712425,0.0351125,0.026293784,9.745359e-06,0.018236995,0.008196652,6.2584877e-06,0.27413353,0.1944359
0.9713092,0.0,1.1920929e-06,2.3245811e-06,4.887581e-06,0.00033301115,0.00051763654,2.3841858e-07,0.0037267804,6.2823296e-05
0.8317158,0.0,2.3841858e-07,1.2516975e-06,1.7881393e-06,0.00084123015,0.0005632937,1.1920929e-07,0.066702336,0.02225557
0.0,0.00019598007,0.24393412,0.99997735,0.23292163,0.0067255795,0.23964971,2.9802322e-08,0.015959144,1.1920929e-07
6.943941e-06,0.9986135,0.00095930696,0.00058987737,4.798174e-06,0.009663045,0.0012949109,1.937151e-06,0.34069738,0.00023674965
0.00012901425,0.0,6.467104e-06,1.847744e-06,1.7881393e-07,4.2915344e-05,0.0007946193,1.7881393e-07,0.9993402,1.9162893e-05
0.9927672,2.9802322e-08,4.7683716e-07,2.0861626e-07,0.0,0.0013523698,0.0047239065,1.0728836e-06,0.00013706088,0.00048071146
4.851818e-05,0.0,1.1205673e-05,0.0037117898,5.6922436e-06,0.00059479475,0.008780956,4.261732e-06,0.99766374,0.00024855137
0.00024330616,0.0,1.7940998e-05,5.8442354e-05,0.05121982,3.784895e-05,0.0012265146,0.00013560057,0.99907196,2.026558e-06
0.99132454,0.0,2.0861626e-07,5.9604645e-08,0.0,0.00029921532,0.00043857098,1.0877848e-05,0.0012301207,5.403161e-05
8.940697e-08,3.2484531e-06,0.0001975298,2.2470951e-05,0.0001410842,0.99998075,0.0042770803,3.2186508e-06,0.8716397,0.00027567148
8.940697e-08,0.8474351,0.14635298,0.007731855,0.00049614906,0.9999614,0.0014388561,6.2286854e-06,0.47238714,9.745359e-06
0.06426853,2.3841858e-07,7.5101852e-06,0.95713055,5.9604645e-07,0.0038613677,0.0011314452,6.7055225e-06,0.00020766258,7.379055e-05
0.9920546,0.0,6.854534e-07,6.854534e-07,0.0,0.0002630651,0.0003719926,6.020069e-05,0.0014411509,3.2424927e-05
0.16072446,1.7881393e-07,0.00014969707,3.427267e-06,1.1920929e-07,2.5331974e-05,0.001571387,0.5591755,0.008726388,0.026751578
0.022203416,7.7843666e-05,0.80477977,4.3302774e-05,2.026558e-06,0.00060904026,0.00096669793,0.00031077862,0.18048692,0.00035053492
0.74393934,0.0,2.2649765e-06,5.364418e-07,1.5795231e-06,0.00011083484,0.00013196468,0.22607535,0.00015923381,0.0060690343
0.99802804,0.0,8.940697e-08,5.9604645e-08,2.9802322e-08,0.0003683567,0.000408113,3.7252903e-06,7.712841e-05,0.000107854605
2.0861626e-07,0.0030736327,0.0011651218,0.99972,0.0014160573,0.009575099,0.44078603,2.682209e-07,0.5549232,7.742643e-05
0.98987365,0.0,0.0001977086,4.7683716e-07,2.9802322e-07,0.00088119507,0.00030580163,6.8843365e-06,5.143881e-05,0.0002811253
0.014184207,8.940697e-08,0.00029301643,5.6028366e-06,3.427267e-06,0.00065916777,0.0013284385,1.6629696e-05,0.9878759,0.0011367202
8.252263e-05,1.7881393e-05,1.1920929e-07,6.556511e-07,6.2584877e-07,0.0024951994,0.9252208,4.7683716e-07,0.02659899,0.027616084
8.940697e-08,1.7881393e-07,4.1037798e-05,0.99999535,1.4424324e-05,0.0005006492,0.0075026453,4.7683716e-07,0.00054961443,6.3180923e-06
0.9940568,0.0,5.364418e-07,1.4901161e-07,1.4901161e-07,0.0007953644,0.0005004406,4.4703484e-07,0.00019261241,0.00025081635
0.9991286,0.0,0.0,0.0,0.0,0.00031647086,0.00040224195,1.1920929e-07,2.4795532e-05,2.399087e-05
1.7881393e-06,2.2530556e-05,0.00068211555,0.00022318959,0.00015681982,0.9999771,0.0077897906,1.79708e-05,0.0025933683,0.0038393438
1.0758638e-05,0.0,3.5256147e-05,8.136034e-06,4.7683716e-07,0.0001720488,0.0018795431,0.0018802285,0.9988672,0.00019407272
4.172325e-07,2.9802322e-07,5.364418e-07,1.7940998e-05,0.0,8.773804e-05,0.68677557,3.1590462e-06,0.99990475,1.013279e-05
0.00026586652,0.0,3.4570694e-06,5.6922436e-06,3.874302e-07,0.00017774105,0.000996083,1.475215e-05,0.9996228,9.0807676e-05
8.85129e-06,8.046627e-06,0.99119526,0.0001386106,0.00025701523,0.004992336,0.14192942,2.3156404e-05,0.3403316,0.0010338426
0.99434733,0.0,8.940697e-08,5.662441e-07,0.0,0.0004451573,0.00024488568,2.2649765e-06,0.0003695488,0.0010072589
1.013279e-06,0.0,0.0,7.4505806e-07,0.0,2.9802322e-08,4.2706728e-05,0.0,5.9604645e-07,0.9999913
0.028836071,2.9802322e-08,0.0017900467,6.645918e-06,0.9947082,0.0001372397,0.00097212195,2.7894974e-05,8.1300735e-05,8.133054e-05
0.96866304,2.9802322e-08,2.115965e-06,1.4901161e-07,0.0,0.0068234503,0.0018448532,6.2584877e-07,0.0015577674,0.002619058
0.34585026,7.331371e-05,5.0514936e-05,0.00014552474,0.00016725063,0.006792128,0.007354021,7.855892e-05,0.028891206,0.09976399
0.99016964,0.0,1.7285347e-06,3.2782555e-06,0.0,0.00097191334,0.0005696416,1.2516975e-06,0.0024457574,0.00016090274
5.00679e-06,0.0,3.707409e-05,2.9802322e-08,0.0,4.23193e-06,0.00024995208,5.9604645e-08,2.554059e-05,0.9999671
0.004767686,0.0,3.990531e-05,1.4901161e-05,4.4703484e-07,0.00055894256,0.0018214583,0.0074706674,0.9668784,0.0023557246
0.5712393,2.9802322e-08,2.5749207e-05,0.011660099,4.7683716e-07,0.006406456,0.0013566017,2.3752451e-05,0.18634275,0.040996313
0.99494636,0.0,5.066395e-07,8.046627e-07,5.9604645e-08,0.00088721514,0.00074467063,5.9604645e-08,0.0001039207,0.00011321902
1.1354685e-05,7.748604e-07,3.5762787e-07,1.7285347e-06,2.0861626e-07,0.005516231,0.9994235,1.2814999e-06,0.0008492768,0.00016096234
5.9604645e-08,2.2560358e-05,0.00055250525,0.00047647953,0.00013124943,0.9999998,0.0029559731,4.8577785e-06,0.12523472,2.3424625e-05
0.00032150745,2.3841858e-07,1.3411045e-06,0.9998238,0.0,0.0024805963,0.0068593323,1.7881393e-07,0.00029301643,4.3213367e-06
0.9949459,0.0,9.536743e-07,3.2782555e-07,4.7683716e-07,0.0027743876,0.00039586425,1.9967556e-06,1.0937452e-05,0.00055503845
1.7821789e-05,5.9604645e-08,2.9802322e-07,0.9999907,1.7881393e-07,0.00017520785,0.0010486245,0.0,0.0008997619,2.2292137e-05
3.4570694e-06,0.9947025,0.0002053678,0.9984294,0.00028902292,0.0060807467,0.0002860725,0.0,0.20061204,1.6510487e-05
0.97950184,0.0,1.6093254e-06,8.940697e-08,3.2782555e-07,0.00044479966,0.000664711,0.0004183054,0.00013068318,0.00379017
1.7136335e-05,8.612871e-06,0.0016618669,0.013076693,0.2921722,0.9999131,0.00931415,0.0002194047,0.0035581887,0.00019091368
1.6123056e-05,0.0,1.013279e-06,0.99999785,0.0,0.00050604343,0.0019553304,2.9802322e-08,2.348423e-05,2.9802322e-08
0.00021749735,2.0861626e-07,7.5399876e-06,1.013279e-06,0.0,0.00012642145,0.0012299716,2.9474497e-05,0.99948347,6.79791e-05
0.0019233823,2.0861626e-07,5.6922436e-06,0.9625058,1.1920929e-07,0.0005367696,0.0013022125,1.180172e-05,0.116550356,0.00024938583
1.8686056e-05,2.926588e-05,0.0007709265,0.00015413761,8.6426735e-07,1.052022e-05,0.0007248819,5.9604645e-08,0.004931003,0.9908951
3.874302e-06,0.0,2.9802322e-08,0.9999958,0.0,0.00021216273,0.0013813972,6.854534e-07,4.339218e-05,1.4901161e-07
0.00026866794,1.9341707e-05,2.9802322e-07,5.6624413e-06,2.3841858e-07,0.004309058,0.84320205,1.770258e-05,0.82852846,0.0017065704
0.9689427,0.0,2.771616e-06,9.23872e-07,8.34465e-07,0.0010871291,0.0002619028,3.33786e-06,0.0005519092,0.010967523
0.9978279,0.0,2.682209e-07,5.364418e-07,0.0,0.0006211996,0.00032797456,5.185604e-06,3.8594007e-05,0.00016129017
0.5018214,5.9604645e-08,0.00019600987,1.5437603e-05,1.7881393e-07,0.00051379204,0.001503706,0.044480443,0.013834745,0.0024296641
0.00024980307,2.8312206e-06,3.8057566e-05,0.00018835068,2.9802322e-08,0.00038462877,0.9914527,0.04939407,0.000266999,4.5269728e-05
8.940697e-08,8.940697e-08,1.1026859e-06,0.99991584,3.0398369e-06,0.00045108795,0.004487723,3.5762787e-07,0.9921731,0.0
7.4207783e-06,0.00092947483,0.03102395,2.6643276e-05,0.00027868152,0.99977726,0.008549213,1.04010105e-05,0.08351016,0.0023580492
0.006305009,0.0,3.7252903e-06,5.763769e-05,1.7225742e-05,0.0010407269,0.002779901,2.0891428e-05,0.9556749,0.00830248
1.3113022e-06,0.0024093986,0.5857597,0.025966555,0.00020229816,0.0011019707,0.56094444,1.937151e-06,0.98293185,0.00045230985
0.12958422,0.0,4.7683716e-07,8.940697e-08,2.9802322e-08,5.00679e-06,4.914403e-05,0.8244009,0.0004350841,2.8908253e-05
0.0037979484,5.9604645e-08,4.7683716e-05,8.791685e-06,8.314848e-06,5.64456e-05,0.0013941228,7.748604e-07,0.9907036,0.0012657642
0.9750409,0.0,7.742643e-05,3.5762787e-07,2.9802322e-08,0.000503391,0.00047904253,0.0062588155,0.00012308359,0.00066259503
0.97906697,0.0,0.0,5.9604645e-07,0.0,0.00046429038,0.00023677945,2.9802322e-07,0.028363585,0.0004900098
0.002133727,2.3841858e-07,0.9985421,2.4437904e-05,8.6426735e-07,0.00055229664,0.0016208887,8.583069e-06,0.006077647,2.9534101e-05
0.99045587,0.0,3.2782555e-06,8.940697e-08,0.0,0.00050130486,0.0006030202,0.00016224384,0.0006453097,0.0005556941
4.0382147e-05,8.940697e-08,9.23872e-07,4.1544437e-05,2.9802322e-07,0.00021028519,0.0017628372,3.85046e-05,0.9901366,0.0026693046
0.79121304,0.0,8.136034e-06,2.2947788e-06,1.4901161e-07,0.0018623173,0.0007535219,1.6242266e-05,0.24533916,0.0023551285
0.9366745,1.4901161e-07,0.00020965934,1.603365e-05,0.00056800246,0.0017895699,0.0003810823,3.6776066e-05,0.0026350021,0.01312685
0.018463135,2.9802322e-08,4.887581e-06,1.8030405e-05,1.0877848e-05,0.0004695058,0.0027830899,3.5762787e-07,0.9064115,0.009220928
0.26696444,0.0,3.6358833e-06,1.2993813e-05,5.00679e-06,0.0011407435,0.0007135868,6.3180923e-06,0.8675699,0.015214413
9.685755e-06,4.7683716e-07,0.9996129,0.0012203455,6.3598156e-05,0.00076165795,0.020659506,2.8133392e-05,0.0076998174,0.0014407337
1.9818544e-05,0.0,2.3841858e-07,6.854534e-07,0.0002462864,0.00029847026,0.005592257,5.9604645e-08,0.99716735,5.841255e-06
2.3841858e-05,0.0001449883,0.0015490353,0.00015676022,0.73988575,0.005247295,0.21443468,0.0011489093,0.020601362,0.069331974
0.52699953,2.9802322e-08,1.2218952e-06,1.0192394e-05,2.3841858e-07,0.0008318722,0.00070232153,1.013279e-06,0.7374125,0.007450044
7.9900026e-05,0.0,2.592802e-06,4.917383e-06,0.0,5.4597855e-05,0.0017589033,4.7683716e-07,0.9998986,6.67572e-06
0.99417484,0.0,6.556511e-07,2.3841858e-07,0.0,0.0019935668,0.00042662024,6.854534e-07,0.00058323145,0.002106905
0.02789548,2.3841858e-07,2.220273e-05,4.208088e-05,8.136034e-06,0.0010052621,0.0012706816,2.0682812e-05,0.9849776,0.001052767
1.1920929e-07,7.122755e-06,0.14074266,2.6524067e-05,0.00011360645,0.9999696,0.003518194,8.583069e-06,0.9878115,1.847744e-06
0.23557433,2.9802322e-08,8.6426735e-07,5.632639e-06,0.0,0.0032235682,0.0028846264,1.4036894e-05,0.81727433,0.002161771
0.86157143,0.0,4.172325e-07,2.0176172e-05,2.9802322e-08,0.0006903112,0.0006636381,4.8220158e-05,0.097491056,0.00077596307
0.9768685,0.0,4.351139e-06,1.6540289e-05,1.4901161e-06,0.001660645,0.0004888773,3.784895e-06,0.0009545088,0.0027281642
0.000721395,0.0,1.8954277e-05,6.943941e-06,5.9604645e-08,0.00059199333,0.0017074645,1.0162592e-05,0.99938923,0.00015121698
1.4156103e-05,0.0,0.9999763,6.198883e-06,2.3841858e-07,0.00021472573,0.00071269274,5.555153e-05,0.0013466775,1.3411045e-06
0.9921936,0.0,1.013279e-06,2.0563602e-06,0.0,0.0016926825,0.00037261844,4.172325e-07,0.00014013052,0.0014036894
0.96323204,0.0,6.967783e-05,3.0696392e-06,3.5762787e-07,0.0022808015,0.00046488643,4.1157007e-05,0.0019193888,0.008829683
0.9652962,0.0,2.9802322e-07,0.0,2.9802322e-08,2.8550625e-05,0.00011020899,0.002941817,0.00014418364,6.812811e-05
0.0,1.7642975e-05,0.9615536,0.0003825426,5.3167343e-05,0.9773573,0.008709013,1.0728836e-06,0.99716544,1.013279e-06
0.9554935,0.0,5.4955482e-05,2.115965e-06,7.1525574e-07,0.000726521,0.0002718866,0.0012745261,0.006979555,0.00036117435
3.0696392e-06,0.982038,0.00011137128,0.0019052625,1.7881393e-07,0.0037955344,0.0028984547,4.7683716e-07,0.9866488,0.0001654625
3.5762787e-07,0.98962486,0.007656932,2.4139881e-05,8.7320805e-06,0.48242518,0.00026339293,1.4901161e-07,0.34549809,9.393692e-05
0.26172864,0.0,6.2584877e-07,1.9073486e-06,0.0,0.0007531345,0.00094890594,2.8014183e-06,0.74326044,3.3468008e-05
8.940697e-07,8.940697e-08,0.004575342,0.99998975,0.27450418,0.00061941147,0.003783971,2.9802322e-07,0.006173134,8.940697e-08
0.9675022,0.0,3.311038e-05,2.771616e-06,4.172325e-07,0.0002386868,0.0005813539,1.0251999e-05,0.07992959,4.5090914e-05
0.00043222308,0.0,6.210804e-05,8.940697e-08,2.0861626e-07,0.00042068958,0.0098364055,3.5762787e-07,0.9990763,0.00016653538
0.00033345819,0.00022995472,2.771616e-06,9.23872e-07,2.3841858e-07,0.0005786121,0.9862194,2.95043e-06,0.008060813,0.0001616478
1.4871359e-05,8.940697e-08,4.7683716e-07,0.9999984,2.9802322e-08,0.0012808442,0.0013305843,0.0,6.1154366e-05,2.9802322e-08
3.451109e-05,6.467104e-06,8.940697e-08,2.2649765e-06,0.0,0.002354592,0.99791867,1.2367964e-05,0.00024089217,0.0006635785
0.858829,0.0,1.4901161e-07,4.6491623e-06,4.7683716e-07,0.0009925961,0.0005055368,2.0682812e-05,0.077780426,0.0012856126
0.787689,0.0,0.0017857254,1.7881393e-07,1.847744e-06,0.00045257807,0.0007660687,0.037462145,0.0003374219,0.0011143088
8.940697e-08,0.00012263656,0.007774949,0.0016270578,0.0017983019,0.9999672,0.0022740662,2.1129847e-05,0.0064225495,0.00033164024
3.1113625e-05,0.0,1.8179417e-06,2.104044e-05,0.0,0.0001821518,0.0040129423,5.066395e-07,0.9998735,2.503395e-05
3.1590462e-06,6.8843365e-05,0.029854566,0.91490364,7.8976154e-05,0.00047561526,0.007916987,1.1920929e-07,0.9796765,1.5109777e-05
0.68490237,1.1920929e-07,2.682209e-07,5.9902668e-05,1.4901161e-07,0.00054079294,0.0007683635,1.4901161e-07,0.17112365,0.059320062
5.2154064e-06,0.008657187,0.00010544062,0.00029227138,4.23193e-06,0.0011734068,0.66711617,5.9604645e-08,0.98664415,0.0009034276
0.98892593,0.0,1.6659498e-05,5.9604645e-07,1.1920929e-07,0.0018463433,0.0013367832,5.9217215e-05,5.0246716e-05,0.0013812482
0.9890245,0.0,1.6391277e-06,2.3841858e-07,0.0,0.00032281876,0.0003683567,0.0018318594,6.1154366e-05,0.0011467934
0.00017127395,5.9604645e-08,4.7683716e-07,0.999984,3.5762787e-07,0.0018603504,0.0010283589,0.0,0.00017899275,2.4437904e-06
0.99683994,0.0,3.2782555e-07,1.1920929e-07,0.0,0.0023594499,0.0008647144,4.708767e-06,5.5372715e-05,5.1021576e-05
0.03652686,2.3424625e-05,0.0005657971,2.9295683e-05,6.377697e-05,0.0010596216,0.0076087415,1.758337e-06,0.8107917,0.25002956
7.343292e-05,0.0,1.4901161e-07,3.027916e-05,1.1920929e-07,1.1950731e-05,0.00011858344,0.9964336,0.02405715,0.003819406
3.6388636e-05,0.0,4.4703484e-07,9.685755e-06,2.9802322e-08,4.3839216e-05,0.0008416176,1.49309635e-05,0.9999589,1.0877848e-05
0.00021505356,0.0,2.3841858e-07,0.99988854,1.1920929e-07,0.00046601892,0.0014804602,2.9802322e-08,0.00030106306,4.172325e-06
8.940697e-08,0.9843173,0.0012950599,4.3570995e-05,0.54168284,0.00079736114,0.00014472008,6.854534e-07,0.022691399,1.5199184e-05
2.6732683e-05,1.7881393e-07,0.00016483665,7.748604e-07,1.1622906e-06,0.0005699098,0.0011289716,9.834766e-07,0.0008328259,0.99831206
2.604723e-05,0.0,1.1920929e-07,0.99999106,4.4703484e-07,0.00097474456,0.00041145086,0.0,0.00022298098,5.364418e-07
5.057454e-05,0.0,9.23872e-07,0.99999547,5.6892633e-05,0.0008152127,0.0027436912,0.0,0.0037406683,6.556511e-07
0.0008262396,0.0,3.5762787e-07,2.6643276e-05,1.9967556e-06,0.00020387769,0.0013317764,2.9802322e-06,0.99887085,8.532405e-05
0.5181004,2.9802322e-08,5.00679e-06,6.9737434e-06,1.4901161e-06,0.00065618753,0.0010535717,1.5586615e-05,0.3350493,0.0038720667
0.98595774,0.0,2.682209e-07,2.9802322e-08,0.0,0.00012886524,0.00017350912,0.00048568845,0.00011950731,0.00046670437
4.708767e-06,5.698204e-05,0.000120192766,0.0044351816,4.2259693e-05,0.0035047233,0.9176691,0.009416848,0.0002962947,0.043633282
0.029340804,1.1920929e-07,8.493662e-06,0.00013563037,8.195639e-06,0.0012513697,0.0012461841,9.23872e-07,0.9182056,0.00694412
0.994714,0.0,1.1920929e-07,3.874302e-07,0.0,0.00038039684,0.00020602345,1.1920929e-07,0.00014707446,0.0031777024
0.99182224,0.0,6.854534e-07,1.9967556e-06,8.940697e-08,0.00040122867,0.0010294616,5.364418e-07,0.0002850592,0.00052654743
4.553795e-05,0.0,3.7521124e-05,9.775162e-06,8.6426735e-07,0.00010293722,0.00022619963,0.99893725,0.001783073,0.002317518
0.9424726,0.0,1.5228987e-05,1.7881393e-07,0.0,0.005746901,0.00046372414,3.129244e-05,0.007885158,0.002550751
0.010728896,0.0,2.592802e-06,2.503395e-06,0.0,1.5944242e-05,5.5372715e-05,0.9977733,8.785725e-05,0.00014454126
3.0100346e-06,1.1920929e-07,0.9985962,1.1116266e-05,1.1920929e-07,0.00032648444,0.0016134083,4.798174e-06,0.975932,1.847744e-06
3.1858683e-05,0.0,0.9998435,2.6106834e-05,5.1885843e-05,0.0007619858,0.0006841123,0.00022238493,0.1934585,8.255243e-06
0.99381816,0.0,0.00015646219,2.9802322e-08,1.1920929e-07,0.00027608871,0.0003861785,1.3411045e-06,1.4424324e-05,0.000207901
0.0,5.662441e-07,0.0001539588,0.00026860833,9.2417e-05,1.0,0.0005054474,1.5288591e-05,0.0030605495,1.013279e-06
0.09985852,0.0,0.00018149614,5.9604645e-08,0.0,6.3985586e-05,0.0005464852,0.030755192,0.0003155768,0.644318
0.98219097,0.0,4.053116e-06,3.5762787e-07,2.9802322e-08,0.0018713474,0.000543803,0.00021091104,0.0005713105,0.00560686
0.00017490983,0.020405889,0.86924493,0.007383585,9.915233e-05,0.0053749084,0.031024516,8.612871e-06,0.052684665,0.01529783
1.0609627e-05,0.0,0.98670995,0.5621414,1.847744e-05,0.0015800297,0.004111409,0.017192453,0.00019907951,2.9742718e-05
0.0,0.2441805,1.6212463e-05,0.99996305,0.03732118,0.05480829,0.56756866,2.9802322e-08,0.015370339,1.7762184e-05
6.854534e-07,3.2037497e-05,0.014736503,0.999877,0.1311808,0.0023330748,0.0038605034,5.543232e-06,0.05755192,3.7908554e-05
0.00029620528,0.00021266937,0.0,1.3291836e-05,0.0,1.04010105e-05,0.0002914071,2.9802322e-08,0.008452833,0.9303891
9.119511e-06,4.351139e-06,0.9516988,0.9973597,6.6161156e-06,0.0012517571,0.00760445,4.7683716e-07,0.002339393,1.257658e-05
0.99298644,0.0,7.212162e-06,1.4007092e-06,0.0,0.0012570918,0.0014672577,1.0579824e-05,0.00022226572,0.0005763173
0.0054097176,0.0,2.3841858e-06,1.129508e-05,0.9769605,0.00023323298,0.00031641126,4.4703484e-07,0.12052813,9.1671944e-05
8.940697e-08,0.44032234,0.0002041161,0.00038534403,3.5762787e-07,0.0010586083,0.011212766,8.940697e-08,0.9994488,8.404255e-06
4.23491e-05,0.0,0.0,2.4735928e-06,0.0,0.00022214651,0.002286017,7.1525574e-07,0.9997158,0.00030648708
0.9586892,0.0,0.00010624528,1.2218952e-06,0.0,0.002270937,0.0008841753,0.0027431846,1.4781952e-05,0.00401932
0.9640704,0.0,8.6426735e-07,1.5199184e-06,1.1086464e-05,0.00032311678,0.00013944507,1.1920929e-07,0.00095793605,0.02054742
2.9802322e-08,0.010310441,5.9604645e-07,0.99991494,2.682209e-06,0.0007100105,0.000502944,5.9604645e-08,0.99057317,0.0
0.8560089,2.9802322e-08,1.1980534e-05,1.7881393e-07,1.2516975e-06,0.0006362498,0.0006495118,2.413988e-06,0.09523165,0.0109577775
2.7030706e-05,4.4703484e-07,0.9998778,0.15534854,1.4901161e-07,0.0009354651,0.001282841,4.2319298e-05,0.00074231625,1.1086464e-05
4.0322542e-05,1.4901161e-07,0.9993123,0.00015452504,4.261732e-05,0.0010377169,0.0042942762,1.513958e-05,0.19862199,8.8602304e-05
0.96469283,0.0,7.715821e-05,4.7683716e-07,1.1920929e-07,0.0016113818,0.0004146099,8.559227e-05,0.0013977587,0.0029266477
0.0010404885,0.0,3.1650066e-05,2.3245811e-06,6.854534e-07,9.274483e-05,0.00045347214,6.386638e-05,0.9986185,0.00019955635
0.20983633,0.0053586364,0.47518152,9.119511e-06,3.695488e-06,0.0047674775,0.11564064,6.720424e-05,0.0030084848,0.00043550134
6.0796738e-06,0.9986695,0.00021117926,0.0028794408,5.6624413e-05,0.007712215,0.00028923154,5.9604645e-08,0.5014548,0.00011214614
0.96953243,0.0,0.0033147633,4.172325e-06,6.556511e-07,0.002143532,0.0010460019,1.0371208e-05,0.0018053949,0.0011807978
0.9934895,8.940697e-08,3.9041042e-06,2.413988e-06,0.0,0.0018304586,0.0067863166,1.4901161e-06,0.00043293834,0.0001232028
0.08446458,0.0,0.11838505,1.2367964e-05,7.2717667e-06,0.0009268224,0.00070500374,2.9951334e-05,0.79894763,0.00013166666
3.3974648e-06,2.1278858e-05,8.34465e-07,0.99999225,1.0967255e-05,0.0012652874,0.006139815,5.9604645e-08,0.42536247,2.1457672e-06
0.22284633,0.0,1.5199184e-06,1.7881393e-07,0.0,0.0007919967,0.00031846762,2.2053719e-06,0.7161781,0.0014027059
0.4846866,0.0,5.066395e-06,1.6123056e-05,8.34465e-07,0.0007519126,0.0055339634,8.2314014e-05,0.74484473,0.00024291873
1.7285347e-06,0.9988289,5.814433e-05,0.00407815,1.7881393e-07,0.012480199,0.00027006865,1.7881393e-07,0.92375374,0.00012749434
3.516674e-06,5.9604645e-08,8.34465e-07,0.99999917,1.4901161e-07,0.00059083104,0.0037481785,0.0,0.0005328953,2.3841858e-07
0.99047995,0.0,3.2782555e-07,5.9604645e-08,0.0,0.00020876527,0.00025194883,9.801984e-05,2.3573637e-05,0.0001680553
0.98925805,0.0,3.874302e-07,1.1920929e-07,3.5762787e-07,0.0012009144,0.00075909495,5.096197e-06,0.0005633235,0.0010433197
0.9932654,0.0,1.4603138e-06,5.9604645e-08,0.0,0.00070518255,0.00069898367,7.4505806e-07,1.5586615e-05,4.7385693e-05
0.0052806437,1.013279e-06,7.56979e-06,3.0368567e-05,4.172325e-07,0.0019181669,0.015718699,6.854534e-07,0.057780623,0.7427232
9.23872e-07,0.9959053,2.5063753e-05,0.0003721118,1.7881393e-07,0.00075024366,0.0001949668,0.0,0.999114,1.937151e-06
8.940697e-07,4.7385693e-06,0.00301978,7.3969364e-05,6.917119e-05,0.9999974,0.003719747,6.651878e-05,0.49228293,5.981326e-05
0.9929881,0.0,0.0,5.662441e-07,0.0,0.0009727478,0.0006224513,5.9604645e-08,0.0011452436,0.00026214123
4.5001507e-06,0.00060495734,0.89576554,0.0010808706,0.026161253,0.0060919225,0.17442971,0.0013933182,0.0087323785,0.006836951
0.016925514,2.413988e-06,0.00042641163,2.4437904e-06,4.172325e-07,0.0011911392,0.0019578338,1.4960766e-05,0.0004887581,0.9393592
1.0281801e-05,0.0,0.0006444156,1.4513731e-05,0.89204407,4.053116e-06,0.0013422072,4.9471855e-06,0.99949855,1.180172e-05
8.827448e-05,9.909272e-05,0.00038808584,0.00014102459,1.2516975e-06,0.9999973,0.04700026,1.6182661e-05,0.0025770068,8.332729e-05
0.94877255,3.9041042e-06,1.8894672e-05,6.5267086e-05,7.1823597e-06,0.0016961098,0.00057286024,4.172325e-07,0.009214163,0.0033449829
0.7273561,9.298325e-06,1.1175871e-05,4.172325e-07,5.9604645e-08,0.0009953082,0.002327174,3.3080578e-06,7.5906515e-05,0.36219034
5.9604645e-06,0.99913734,9.4771385e-06,0.0010499954,6.765127e-06,0.0024513602,0.0002744496,0.0,0.05364713,0.0008839071
0.99398756,0.0,3.5762787e-07,1.1920929e-07,0.0,0.0032067895,0.0027430058,3.1590462e-06,4.708767e-05,6.124377e-05
0.005300671,0.0,0.00013539195,5.733967e-05,8.046627e-06,0.0001707375,0.0007749498,2.6971102e-05,0.9942055,0.00071918964
4.5597553e-06,1.4662743e-05,9.9509954e-05,6.854534e-07,5.841255e-06,0.0049700737,0.98824453,3.5762787e-06,0.66220427,0.0029758215
0.9960265,0.0,1.7881393e-07,0.0,0.0,0.0005674064,0.00038576126,3.9339066e-06,0.00033289194,0.00025442243
8.34465e-07,0.0,9.4771385e-06,4.7683716e-07,0.0,0.999998,0.0019081831,4.172325e-07,0.0093102455,1.5944242e-05
0.2614311,1.1920929e-06,0.81785136,8.34465e-07,8.940697e-08,0.00027176738,0.0009678304,0.0051878095,0.00014787912,0.00013807416
0.00030446053,1.7881393e-07,1.4901161e-07,0.9999343,2.9802322e-08,0.00054615736,0.00052952766,2.9802322e-08,0.0030005872,4.23193e-06
0.26029208,0.0,0.0005890727,1.2218952e-06,1.1026859e-06,0.0002837777,0.0017737746,0.005242437,0.0063399374,0.5196939
0.752195,0.0,4.172325e-07,2.9802322e-06,5.662441e-07,0.0003835857,0.00096818805,9.298325e-06,0.7366427,0.00023537874
0.0116790235,4.762411e-05,1.6987324e-05,1.6480684e-05,3.8146973e-06,0.0013658702,0.57264644,1.3411045e-06,8.85129e-06,0.0019641519
0.0010153055,2.9802322e-08,2.3841858e-07,2.9832125e-05,8.6426735e-07,2.1636486e-05,0.00028312206,3.2782555e-07,0.9986624,0.000102728605
5.7011843e-05,0.9969605,5.1230192e-05,0.000323534,0.00029343367,0.0022768974,0.00037920475,5.9604645e-08,0.04039079,0.004385948
0.9958613,0.0,4.172325e-07,4.3809414e-06,0.0,0.0023932755,0.0009356141,3.8146973e-06,0.00015762448,0.00014999509
0.033081114,7.122755e-06,4.0203333e-05,6.93202e-05,6.854534e-07,0.0002643466,0.0024923682,3.874302e-07,0.7461914,0.059899688
0.9945682,0.0,1.1920929e-07,1.4901161e-07,0.0,0.003083676,0.0005238652,1.2218952e-05,0.00020682812,0.00028657913
0.23270053,1.6093254e-06,0.9544751,3.1232834e-05,8.6426735e-07,0.0005239248,0.0009023547,0.0003774166,9.584427e-05,0.00016072392
0.9319298,0.0,7.2717667e-06,4.1127205e-06,0.0031030178,0.0013588965,0.0033062696,8.7320805e-06,6.759167e-05,0.0053804517
0.9833421,0.0,2.7418137e-06,5.9604645e-08,0.0,0.0011481941,0.0004181862,0.00038331747,0.00039112568,0.0011377633
0.006934792,2.2560358e-05,1.2099743e-05,0.00020450354,0.00011155009,0.0015566349,0.8796406,1.4364719e-05,0.00015711784,0.030435145
0.8527944,7.748604e-07,0.193414,6.854534e-07,2.9802322e-07,0.0006919205,0.000428766,0.00022786856,0.0001591146,0.00059977174
0.12925449,0.0,5.9604645e-08,3.5762787e-07,0.0,5.543232e-06,4.9620867e-05,0.66722775,0.00014793873,0.0001680255
0.0,1.4901161e-07,8.267164e-05,0.00043144822,1.4960766e-05,0.99999905,0.0044478476,3.1769276e-05,0.9766223,1.1026859e-06
1.1026859e-06,2.9802322e-08,2.0742416e-05,0.99999934,6.7055225e-06,0.00025996566,0.0013603568,2.9802322e-07,6.455183e-05,1.4901161e-07
0.0033138096,0.0,1.552701e-05,4.7683716e-07,5.9604645e-08,0.00018009543,0.00039559603,1.013279e-06,0.974922,0.012872338
0.997733,0.0,7.748604e-07,8.940697e-08,0.0,0.0012306273,0.0004082024,4.172325e-07,0.00024327636,0.00017696619
1.579523e-05,4.172325e-07,0.9967326,0.0002696216,0.15244347,0.0010085106,0.0024766624,0.00014230609,0.00031262636,1.0192394e-05
0.0,8.046627e-06,0.9971365,0.99907833,0.00045531988,0.008143693,0.22893974,2.682209e-07,0.00063824654,8.940697e-08
0.9887544,0.0,7.1525574e-07,1.4007092e-06,3.874302e-07,0.00068473816,0.0004982352,1.04904175e-05,0.0016985834,0.009640783
0.00017377734,0.0,0.0020309389,1.7940998e-05,5.066395e-07,0.00015166402,0.0031928718,0.00028258562,0.99912536,5.0663948e-05
8.106232e-06,3.0696392e-06,8.940697e-07,2.2947788e-06,2.9802322e-08,0.0027314126,0.9990081,8.34465e-07,7.137656e-05,0.00044497848
4.1007996e-05,2.1457672e-06,0.9980042,0.0014413893,0.0018280447,0.0010932386,0.009436578,6.467104e-06,0.13391158,3.6418438e-05
0.0036789477,0.0,1.5109777e-05,1.4901161e-06,2.6226044e-06,0.000106453896,0.00028446317,1.731515e-05,0.99743253,8.761883e-06
3.2782555e-07,0.9480015,0.0027109385,0.0029335916,0.00034591556,0.9954771,0.021388918,2.6524067e-06,0.14934278,1.8179417e-05
2.3841858e-07,0.0,4.196167e-05,0.9999912,0.00037032366,0.0007765293,0.028003603,0.0,0.0017712116,4.4703484e-06
2.9802322e-08,0.998618,5.5521727e-05,0.99960595,1.5318394e-05,0.013589114,0.0066712797,0.0,0.007890791,9.685755e-06
0.48666963,2.9802322e-08,6.2584877e-07,3.516674e-06,0.0,0.00079384446,0.0016598403,0.0016112924,0.6359211,9.685755e-05
1.4990568e-05,1.1980534e-05,0.00026360154,2.2172928e-05,7.301569e-06,0.9999981,0.00092571974,0.0010935664,0.03759849,1.0341406e-05
0.9735207,0.0,1.9073486e-06,1.7881393e-07,7.301569e-06,0.00042119622,0.0003747344,0.00019413233,0.0012194812,0.0016165674
0.0,0.00045853853,0.9475942,0.005849719,0.0015673935,0.99950725,0.0040053725,3.540516e-05,0.058597714,2.4199486e-05
0.011135697,0.0,4.172325e-07,7.909536e-05,0.0,0.0027392507,0.0011419952,0.0006801486,0.98135865,0.0003245473
2.9802322e-08,1.1920929e-07,3.5762787e-07,0.99999285,0.15259501,0.0005352199,0.002711743,4.4703484e-07,0.00032913685,5.4836273e-06
3.9577484e-05,2.9802322e-08,5.066395e-07,4.798174e-06,0.0,0.00014162064,0.00046285987,1.4901161e-07,0.9998752,0.00012737513
0.9717492,0.0,2.5629997e-06,4.61936e-06,3.5762787e-07,0.0020270646,0.0004440546,3.9845705e-05,0.0012528598,0.04083842
1.5795231e-06,0.0,2.9802322e-08,0.9999992,4.1633844e-05,0.0007805228,0.00055110455,0.0,0.001319617,4.7683716e-07
0.95685196,0.0,6.3598156e-05,1.2546778e-05,4.172325e-07,0.006874144,0.0010114014,1.731515e-05,0.034995764,0.00396809
1.1026859e-06,4.172325e-07,2.5629997e-05,3.963709e-06,0.0,1.1920929e-06,7.3224306e-05,3.8683414e-05,0.000116467476,0.9998485
0.0,4.708767e-05,1.7881393e-06,0.999983,1.7881393e-07,0.0015073121,0.97054935,2.3841858e-07,0.00011605024,2.682209e-07
0.0,2.4795532e-05,0.00067684054,5.5015087e-05,0.35843825,0.99999964,0.0015319884,0.00020307302,0.0006534159,4.4703484e-06
0.9876744,0.0,4.172325e-06,6.854534e-07,4.7683716e-07,0.01042527,0.0008893013,3.0696392e-06,5.1259995e-05,0.00057274103
1.5199184e-06,1.4603138e-06,0.0002746582,2.5749207e-05,3.2782555e-07,0.022449315,0.0018457174,1.7762184e-05,0.0017874539,0.7800327
0.002867043,0.0,4.7683716e-07,2.938509e-05,8.34465e-07,0.0004401207,0.00178051,2.115965e-06,0.9972038,1.2099743e-05
0.000608027,0.0,3.5762787e-07,3.579259e-05,1.7881393e-07,0.00019606948,0.0012579262,2.3841858e-07,0.999565,8.323789e-05
0.10274851,0.0,3.5762787e-07,1.9967556e-06,1.4901161e-07,0.0002478361,0.00032514334,2.8014183e-06,0.9742557,0.00013422966
0.005997747,0.0010169148,2.104044e-05,0.00011795759,3.3676624e-06,0.010120243,0.56215024,1.40070915e-05,0.0010716021,0.003087759
0.029335856,0.0,1.591444e-05,4.5865774e-05,4.4703484e-07,0.00076928735,0.0038656294,0.5732173,0.0042242706,0.005254686
0.0036382377,0.00022351742,0.69154966,1.9967556e-06,2.3841858e-06,0.0007970631,6.774068e-05,0.002362281,0.003068447,0.0007841885
0.00020873547,0.0,8.940697e-08,8.6426735e-07,0.0,0.0004364848,0.0030660927,2.0861626e-07,0.9993522,4.2915344e-05
1.7166138e-05,0.99839437,0.0006265342,0.00024688244,5.8710575e-06,0.005094379,0.0009146631,1.1175871e-05,0.0015375316,0.0006328821
5.9604645e-08,0.00069367886,0.0002771914,0.9999281,0.02496472,0.0024638772,0.0071690977,0.0,0.18718848,3.2186508e-06
0.0043937266,5.429983e-05,0.00019443035,1.1026859e-05,1.3291836e-05,4.735589e-05,0.00016102195,8.940697e-08,0.019464642,0.88316256
0.09343532,0.0,1.9073486e-06,1.7881393e-07,0.0,6.2286854e-06,8.016825e-05,0.9476537,2.3692846e-05,5.3673983e-05
2.682209e-06,1.1026859e-06,6.7055225e-06,0.9999959,0.00048023462,0.0016470551,0.0040171444,4.172325e-07,0.25463015,2.3841858e-07
0.9404764,7.748604e-07,0.00017368793,1.6987324e-06,1.3768673e-05,0.00039690733,0.0013706982,0.00013655424,0.052358866,0.0045808256
0.99109733,0.0,1.1771917e-05,1.0222197e-05,0.0,0.0012408495,0.0002706051,1.6391277e-06,0.0005879998,0.00024297833
0.9904899,0.0,3.0696392e-06,4.798174e-06,8.940697e-08,0.0010797083,0.000461936,2.8342009e-05,0.00056520104,0.00084877014
0.9137176,0.0,1.2516975e-06,2.3841858e-07,2.9802322e-08,0.0030843914,0.0028194487,6.2584877e-06,0.03179893,0.018101394
2.682209e-07,3.0696392e-06,0.6426504,0.00042155385,0.9291768,0.01137504,0.0027230978,2.682209e-06,0.99746394,1.8179417e-06
2.6524067e-06,6.2584877e-07,0.0014871657,3.5881996e-05,8.821487e-06,0.9999999,0.0021384358,0.0009982288,0.012360334,5.364418e-07
0.9941616,0.0,2.0861626e-07,4.5895576e-06,1.7881393e-07,0.002471447,0.0012505352,1.1622906e-06,0.0002603531,0.002929598
0.9559169,0.0,6.2584877e-06,2.5629997e-06,1.9669533e-06,0.0010697246,0.0002898574,2.6106834e-05,0.00017625093,0.067789406
0.99356157,0.0,3.2782555e-07,5.9604645e-07,8.940697e-08,0.0013495982,0.00077319145,5.1766634e-05,5.0783157e-05,0.0007035136
1.013279e-06,0.0,0.0,7.4505806e-07,0.0,2.9802322e-08,4.2706728e-05,0.0,5.9604645e-07,0.9999913
0.00146541,0.00061389804,0.16284761,0.00027289987,3.3974648e-05,0.0018612742,0.058645934,2.515316e-05,0.99294436,0.0006028116
0.0033743083,2.115965e-06,0.9565779,1.9609928e-05,1.013279e-06,0.00081038475,0.00034826994,5.185604e-06,0.0019264817,0.00044709444
0.0046188235,0.00015124679,5.748868e-05,2.6524067e-06,8.404255e-06,0.004021406,0.5972638,8.821487e-06,0.8520377,0.0051855147
0.0015722215,5.9604645e-08,1.9550323e-05,3.1113625e-05,0.76855004,0.08884695,0.00014197826,5.0485134e-05,0.0018655956,0.00027033687
0.31954753,1.4901161e-07,2.9951334e-05,3.284216e-05,5.9604645e-07,0.00028684735,0.00044330955,0.002464354,0.008058667,0.45171747
0.00016573071,0.0,1.1920929e-07,0.99993384,8.940697e-08,0.00080543756,0.0005439818,0.0,0.0003735721,2.8908253e-06
3.2782555e-07,1.5199184e-06,0.011084557,0.00016248226,0.03956309,0.00030228496,0.051719397,0.0004836619,0.99930847,5.5104494e-05
0.99455345,0.0,2.9802322e-08,3.5762787e-07,0.0,0.0008162856,0.0003463626,5.9604645e-08,0.0008710921,0.00036653876
0.8755207,0.0,2.82228e-05,6.556511e-07,8.940697e-08,0.00039312243,0.0007751584,0.09571275,0.013983935,0.010829359
0.9703038,0.0,4.7683716e-07,2.9802322e-07,1.4901161e-07,0.0004810989,0.00056275725,8.940697e-08,0.017508477,0.0011717677
2.965331e-05,0.0,1.7881393e-07,4.4703484e-07,2.0861626e-07,5.364418e-06,0.00056931376,1.7881393e-07,0.9999352,3.7252903e-06
1.013279e-06,0.99812865,1.3113022e-05,0.003168881,5.990267e-06,0.0008508563,0.00021862984,2.9802322e-08,0.99840987,3.0696392e-06
0.9965242,1.1920929e-07,1.66893e-06,4.7683716e-07,2.9802322e-08,0.00042444468,0.0006519854,8.940697e-08,2.2560358e-05,0.001072079
0.115617305,5.9604645e-07,0.933056,1.180172e-05,2.682209e-07,0.0003835857,0.00080764294,3.7252903e-05,0.006105989,6.508827e-05
2.9802322e-07,5.8710575e-05,7.69496e-05,0.9998381,0.00014185905,0.007892251,0.04259768,1.2516975e-06,0.9150407,1.7881393e-07
0.95119154,0.0,1.7881393e-06,7.748604e-07,0.0,0.0003707409,0.00022953749,0.018144816,9.384751e-05,0.00013196468
1.001358e-05,0.0,0.99991643,0.002095282,5.4091215e-05,0.00020998716,0.001611203,1.2516975e-06,0.05331707,3.0219555e-05
5.2809715e-05,0.00011566281,0.00033155084,0.0001001358,4.6610832e-05,0.002429247,0.99805677,4.6044588e-05,0.17355165,0.0015882254
1.8656254e-05,9.614229e-05,0.00026908517,2.861023e-06,2.4735928e-06,0.00024062395,0.00490126,4.172325e-06,0.00897184,0.99591315
0.99272025,0.0,2.9802322e-07,3.874302e-07,0.0,0.0010479987,0.0018713474,1.14142895e-05,0.00019749999,0.00055608153
0.016465038,7.3611736e-06,0.0011868775,6.735325e-06,2.9802322e-08,0.94867885,0.005301118,1.0341406e-05,0.00034359097,3.1381845e-05
0.0,0.99018544,1.7464161e-05,0.98785484,1.1622906e-06,0.015588909,0.0025162995,0.0,0.97938865,1.4007092e-06
4.4703484e-06,0.0022747219,0.0008316934,0.001977384,2.104044e-05,0.99982405,0.17705935,0.0002284646,0.022014111,0.0005334914
6.8843365e-06,1.4901161e-07,0.9344981,0.0014956295,2.7507544e-05,7.075071e-05,0.0004962683,0.91584367,0.0008929372,0.00030332804
0.0002117753,0.0,2.0503998e-05,1.6391277e-06,8.940697e-08,0.00014993548,0.00040659308,0.0066584647,0.94725674,0.024420261
2.503395e-05,0.99880385,5.2273273e-05,0.0003439486,1.0877848e-05,0.007580638,0.00059723854,6.854534e-07,0.0337162,0.0012027919
0.0,7.1525574e-07,0.98625964,0.9986316,0.0009675324,0.00031614304,0.0010205805,1.7881393e-07,0.99329984,0.0
2.4437904e-06,0.0,5.096197e-06,1.9967556e-06,0.0,4.6521425e-05,0.00074240565,0.00021496415,0.9975592,0.002291888
1.7881393e-07,0.00021398067,0.0023265183,0.9998374,0.9755107,0.98769295,0.03856021,1.847744e-06,0.0010311604,2.9802322e-08
0.96198165,2.9802322e-07,4.6283007e-05,3.427267e-06,4.0233135e-06,0.00055626035,0.0009369552,6.467104e-06,0.0006418824,0.020999163
0.9920237,0.0,1.1920929e-06,6.854534e-07,1.7881393e-07,0.0011045933,0.00048670173,8.285046e-06,5.0485134e-05,0.0002155006
2.6226044e-06,6.148219e-05,0.1774301,0.00012299418,5.6922436e-06,0.99998343,0.0021625757,0.00022050738,0.0019535422,0.0003026724
0.006714016,0.0,1.0937452e-05,3.7252903e-06,2.9802322e-08,3.1858683e-05,0.00048220158,0.9882724,6.0617924e-05,0.00045779347
0.0,1.7881393e-07,0.00021409988,4.4226646e-05,9.012222e-05,1.0,0.0001347363,2.3275614e-05,0.0194633,1.7881393e-07
0.0024272501,2.9802322e-08,0.0002296567,4.887581e-06,1.2814999e-06,0.9992852,0.0004056394,1.9609928e-05,0.012608051,0.0003338158
2.9802322e-08,5.221367e-05,0.0041843057,0.00045719743,6.80387e-05,1.0,0.004054457,1.2636185e-05,0.033682078,1.31726265e-05
0.000115811825,1.7881393e-07,0.0008520484,9.23872e-07,1.7881393e-06,7.57575e-05,0.0013975799,0.0002501011,0.06939304,0.9761617
4.5001507e-06,5.9604645e-08,0.99992514,0.00038602948,2.887845e-05,0.00032231212,0.0019097924,0.000685513,0.000844121,0.0005785823
6.3180923e-06,0.0,2.6226044e-06,0.99998844,1.1920929e-06,0.0004284382,0.0011047423,4.4703484e-07,0.00011229515,8.046627e-07
0.7486743,0.0,5.608797e-05,3.3468008e-05,4.172325e-07,0.0050626397,0.00074723363,2.861023e-06,0.053347975,0.03035888
0.99856627,0.0,2.9802322e-08,0.0,0.0,0.00033155084,0.00010660291,9.834766e-07,2.0176172e-05,8.633733e-05
0.0010876656,5.9604645e-07,0.0017172098,0.00066304207,0.00032904744,0.99979645,0.0013293624,0.0011917949,0.020217001,0.0002603233
0.005584419,7.1525574e-07,3.72231e-05,4.5895576e-06,5.364418e-07,0.005183816,0.44325197,2.2649765e-05,0.032229215,0.0025644302
2.5629997e-06,3.0696392e-06,0.98252416,0.00074905157,0.011793226,0.010312706,0.0056434274,2.6911497e-05,0.0434404,0.0008780956
0.0060129166,0.0,4.261732e-06,6.854534e-07,0.0,0.9892221,0.0028645992,0.00014317036,0.0016397238,0.0002889037
0.83166313,0.0,5.066395e-07,3.1590462e-06,4.172325e-07,0.00059109926,0.0002516806,0.00013661385,0.018639445,0.04433769
0.04311773,6.2584877e-07,1.8894672e-05,1.7881393e-07,8.940697e-08,0.0003747642,0.00048470497,3.4570694e-05,0.0007776916,0.94288236
0.00023844838,1.5497208e-06,7.009506e-05,0.000590235,2.8312206e-05,0.9822334,0.0020880997,8.049607e-05,0.48269963,0.0017978251
0.0708918,2.682209e-07,0.0011721551,1.0728836e-06,2.1725893e-05,0.0011079013,0.018065244,0.49145657,0.0017696917,0.00909093
0.010277718,3.606081e-06,1.0222197e-05,0.0003244877,6.2584877e-07,0.9110676,0.009497017,1.9490719e-05,0.04852587,0.013756216
0.9791651,0.0,9.23872e-07,1.4901161e-07,0.0,0.00020000339,0.00014653802,0.00018906593,1.8239021e-05,6.7681074e-05
0.8748038,8.940697e-08,2.9802322e-08,3.4868717e-06,0.0,0.0006682277,0.00064361095,5.543232e-06,0.33194584,0.00017511845
8.940697e-07,3.4928322e-05,0.9631203,8.2969666e-05,1.001358e-05,0.9998719,0.0033591986,5.1945448e-05,0.0025390685,1.7881393e-06
0.97738904,8.940697e-08,4.8190355e-05,6.2584877e-07,5.3048134e-06,0.0007840097,0.00079002976,3.248453e-05,0.005967647,0.001873523
8.940697e-08,0.000500232,1.3113022e-06,0.9999845,0.0004273951,0.028313369,0.7887569,1.4901161e-07,0.0011797845,2.9802322e-06
0.9629884,0.0,4.0233135e-06,4.172325e-07,3.427267e-06,0.0019927025,0.00038027763,0.00014096498,0.00043442845,0.030315071
1.8715858e-05,2.5629997e-06,6.2584877e-07,0.9999761,0.0,0.0008639991,0.0014891922,0.0,0.00076550245,1.50203705e-05
0.96826154,8.940697e-08,8.940697e-08,4.7683716e-07,2.9802322e-08,9.915233e-05,0.00030219555,2.0861626e-07,0.01736492,0.0006057918
0.00010496378,4.0233135e-06,4.142523e-06,0.00012475252,1.23381615e-05,0.00050610304,0.005159527,2.2888184e-05,0.9856547,0.0042449534
3.874302e-07,0.0002026856,0.0007365644,0.00015681982,6.2584877e-07,0.99999845,0.0056633353,3.0696392e-06,0.008171827,0.00011122227
1.1622906e-06,4.172325e-07,1.4275312e-05,0.99998665,3.8802624e-05,0.0003863871,0.004793972,5.364418e-07,0.0014337003,0.00041815639
0.9894544,0.0,3.516674e-06,2.8908253e-06,8.940697e-08,0.0021398067,0.0020580888,1.8179417e-06,0.00040885806,0.00033402443
3.07858e-05,0.0,1.1920929e-07,8.285046e-06,3.2782555e-07,7.3224306e-05,0.00043186545,8.940697e-08,0.9999566,3.3974648e-06
0.04112321,1.4901161e-07,0.98004615,2.9206276e-06,1.0728836e-06,0.0005071461,0.0020432174,0.00067943335,0.0004043281,7.280707e-05
2.4855137e-05,0.9992602,5.853176e-05,9.2983246e-05,7.5399876e-06,0.010389894,9.047985e-05,5.9604645e-08,0.004817903,8.574128e-05
0.99351764,0.0,4.172325e-07,2.9802322e-07,8.940697e-08,0.0007879436,0.0003618896,8.85129e-06,0.00047910213,0.0002194345
0.002839446,2.3841858e-07,2.4318695e-05,9.23872e-07,1.7881393e-07,0.00016498566,0.0035299063,2.3812056e-05,0.9991059,3.325939e-05
0.962318,0.0,3.0875206e-05,1.3709068e-06,7.5399876e-06,0.0012469888,0.00070798397,7.778406e-05,0.010472447,0.001177609
0.0,6.338954e-05,0.98337257,0.19788331,0.0002398789,0.013661951,0.5961927,5.066395e-07,0.98561513,2.115965e-06
0.055020362,0.0,6.2584877e-07,1.5318394e-05,2.3841858e-07,0.00023242831,0.0002592206,2.720952e-05,0.9654914,0.00011065602
0.9852971,0.0,2.1755695e-06,3.5762787e-07,1.3113022e-06,0.0025889575,0.0018365383,2.1457672e-06,0.000112473965,0.0029114485
0.64118326,0.0,5.662441e-07,0.0,0.0,1.0251999e-05,0.000121474266,0.35172984,0.00015106797,0.00020572543
0.035147965,5.9604645e-08,2.9802322e-07,2.0861626e-07,0.0,0.002266705,0.5152924,1.1622906e-06,0.00013652444,9.0807676e-05
0.8359293,1.013279e-06,8.940697e-07,9.030104e-06,0.0,0.0012836158,0.001057893,1.1026859e-06,0.3817525,0.0018729866
0.73906744,2.9802322e-08,7.212162e-06,4.917383e-06,7.748604e-07,0.00016012788,0.00043544173,5.9604645e-08,0.26227716,0.013823509
0.001145035,0.0,5.364418e-07,2.9802322e-08,0.0,0.0003453791,0.0021049678,4.8577785e-06,0.9987309,8.034706e-05
0.6066348,5.066395e-07,1.5676022e-05,3.0308962e-05,1.013279e-06,0.0009871125,0.024532616,0.010326028,0.00092089176,0.025560677
5.2452087e-06,0.0,0.00025582314,3.695488e-06,1.6391277e-06,1.1712313e-05,0.0044822693,1.758337e-05,0.99992937,5.057454e-05
1.7881393e-07,0.0,6.854534e-05,0.9999405,0.99950516,0.00018575788,0.00079122186,8.940697e-08,0.009663582,8.940697e-08
0.97609705,0.0,1.1026859e-06,2.0861626e-07,0.0,0.0033279657,0.0004325211,3.874302e-07,0.001557678,0.009244144
0.9324511,4.172325e-07,0.002212286,2.0861626e-07,2.682209e-07,0.000415653,0.00051656365,3.954768e-05,0.033335686,0.0054419637
0.5715784,0.0,4.36306e-05,1.4603138e-06,0.0,0.0011605322,0.0011723936,0.0005928874,0.13693303,0.0017278492
7.033348e-06,4.4703484e-07,1.1920929e-07,1.013279e-06,2.3841858e-07,0.0027801394,0.9981188,1.2516975e-06,0.00054225326,0.0052179694
0.00045278668,0.0,0.00020509958,2.6583672e-05,1.0192394e-05,0.0002617538,0.0006748438,0.92178535,0.0057787895,0.004025668
1.5497208e-06,2.503395e-06,2.0623207e-05,0.9999126,2.2351742e-06,0.00028398633,0.0021922588,7.0631504e-06,0.0004017651,0.00011339784
1.2785196e-05,3.823638e-05,6.3180923e-06,5.4061413e-05,1.4603138e-06,0.9074861,0.9385772,1.7493963e-05,0.0038383007,0.008435249
4.4703484e-06,2.9802322e-07,0.006893873,0.00023570657,0.03278619,0.001726836,0.09091726,5.6177378e-05,0.94156635,0.0006145537
5.26309e-05,1.4901161e-07,0.9998139,0.0007047355,3.1292439e-06,0.00038447976,0.002937317,3.9339066e-06,0.2072832,1.4364719e-05
3.567338e-05,0.0,5.662441e-07,4.172325e-07,0.0,5.209446e-05,0.00077563524,1.4901161e-06,0.99985945,5.3286552e-05
0.99758065,0.0,2.9802322e-07,1.7881393e-07,0.0,0.000600487,0.00024852157,7.033348e-06,8.380413e-05,2.3752451e-05
0.98607266,0.0,4.2021275e-06,5.722046e-06,5.9604645e-08,0.005051911,0.0023499727,9.357929e-06,0.0002566874,0.0021001995
0.00010469556,0.0,0.0,0.99998116,2.682209e-07,0.000179708,0.00012591481,8.940697e-08,1.2516975e-05,1.6093254e-06
8.317828e-05,0.0,1.6003847e-05,0.9999824,2.413988e-06,0.0007621944,0.0007921457,0.0,1.4156103e-05,8.940697e-07
0.0014468133,0.0,1.3440847e-05,2.0861626e-07,1.847744e-06,2.56598e-05,0.0006133318,6.9737434e-06,0.98385525,0.0001475513
0.99492383,0.0,1.8775463e-06,3.1292439e-06,0.0,0.0009172559,0.00037044287,1.0728836e-06,0.00044977665,0.00028011203
0.960008,5.9604645e-08,2.1636486e-05,2.1755695e-06,2.9802322e-07,0.0017631352,0.0024192631,4.8607588e-05,0.0022340417,0.0026427805
0.008019716,9.745359e-06,5.066395e-07,1.3560057e-05,4.7683716e-07,0.0041299164,0.538942,1.1920929e-07,0.000949502,0.0010128617
0.0007519126,9.23872e-06,0.00022244453,0.00016364455,2.6017427e-05,0.016473472,0.9654616,0.00046521425,0.00088480115,0.00069847703
0.9208324,1.4901161e-06,1.4454126e-05,0.00017151237,6.854534e-07,0.0051319003,0.00069466233,1.4394522e-05,0.11571509,0.0031271577
0.046277523,0.0,1.4007092e-06,5.066395e-07,0.0,0.00082695484,0.8523209,5.9604645e-08,0.0009242594,3.4362078e-05
0.000113636255,8.34465e-07,0.00035324693,2.1457672e-06,0.000109285116,0.0007798672,0.009023428,0.00021609664,0.8249181,0.11936605
0.46749443,8.940697e-08,4.708767e-06,2.1249056e-05,1.7881393e-07,0.0014849603,0.0008481145,5.0842762e-05,0.71026665,0.009260118
3.4481287e-05,8.940697e-08,4.7683716e-07,0.00014424324,5.9604645e-08,9.983778e-05,0.0008665323,1.7881393e-07,0.99987304,5.7160854e-05
2.0861626e-07,0.9993734,3.311038e-05,0.0014202595,3.993511e-06,0.00082203746,0.00065740943,0.0,0.9952878,1.30832195e-05
0.00060114264,0.0,1.5795231e-06,3.516674e-06,2.9802322e-07,0.00016024709,0.00045385957,6.2286854e-06,0.99595046,0.0065167546
4.2766333e-05,5.9604645e-08,0.9999306,5.9515238e-05,6.556511e-07,0.00037312508,0.0008365214,1.4275312e-05,0.06931606,3.2484531e-06
3.2365322e-05,0.9990933,0.00023701787,0.07796547,3.2782555e-05,0.003999263,3.2156706e-05,3.2484531e-06,0.02905637,0.0002888739
0.20833248,0.0,9.119511e-06,4.0233135e-06,1.1920929e-07,0.001036942,0.0014686286,6.556511e-06,0.9112003,0.004714787
3.3974648e-06,0.9879481,1.4454126e-05,0.0116785765,4.4703484e-07,0.0022475421,0.007148266,0.0,0.9840672,0.0005302429
9.804964e-06,0.99332476,3.2514334e-05,0.019458205,0.00026157498,0.0016325116,0.0018879771,0.0,0.5628538,0.00011733174
7.57277e-05,0.94831973,0.00969103,0.0021119714,0.00014939904,0.0038511157,0.002466619,2.5779009e-05,0.0013308525,0.017521799
2.9802322e-08,4.4703484e-07,0.00054860115,6.0260296e-05,9.018183e-05,1.0,0.0011633933,1.257658e-05,0.03684202,1.013279e-06
4.5597553e-06,0.8712659,0.0050091743,7.69794e-05,0.0005687773,0.0047640502,0.018075407,0.00018307567,0.00028389692,0.006585747
1.013279e-06,1.4901161e-07,0.99369544,5.3942204e-06,0.00020906329,8.7469816e-05,0.00026506186,0.00017505884,0.70408714,1.5497208e-06
0.74235165,2.9802322e-07,3.796816e-05,2.0861626e-07,4.4703484e-07,0.0005621314,0.0004940331,0.00011751056,6.979704e-05,0.47832516
0.0,0.00045916438,0.0023303628,0.8865005,0.48728237,0.99999416,0.042571872,2.6196241e-05,0.017172337,4.1127205e-06
0.9397619,0.0,7.0929527e-06,1.3768673e-05,0.004383683,0.00080531836,0.0007328093,5.066395e-06,0.0096999705,0.0011548698
2.9802322e-07,0.0014491379,2.8014183e-05,0.9999693,2.3901463e-05,0.0851126,0.19276616,3.5762787e-07,0.5105723,1.7881393e-06
0.056035608,0.0,4.5657158e-05,7.659197e-06,2.9802322e-08,0.00014531612,0.0001809299,0.9466684,3.361702e-05,0.004179299
0.8868292,0.0,3.683567e-05,7.8082085e-06,1.7881393e-06,0.00031459332,0.0006005466,0.00256145,0.012098789,0.0033833385
0.8549571,1.1920929e-07,0.001969546,3.1799078e-05,1.758337e-06,0.0035235584,0.0039334297,0.00045531988,0.0005671382,0.002912879
0.9937408,0.0,2.2053719e-06,5.364418e-07,0.0,0.0020473003,0.0007980764,8.404255e-06,0.00015434623,0.0010121465
1.013279e-06,0.0,0.0,7.4505806e-07,0.0,2.9802322e-08,4.2706728e-05,0.0,5.9604645e-07,0.9999913
0.026597023,8.940697e-08,1.0162592e-05,0.00010180473,1.1622906e-06,0.00010573864,0.08943051,0.02551511,0.047382146,0.0027877092
0.00054883957,0.0,3.874302e-07,3.3706427e-05,1.4305115e-06,0.0001270175,0.0019403398,4.7683716e-07,0.99932826,3.0368567e-05
2.9802322e-07,9.715557e-06,0.0014029443,0.9995468,0.03550142,0.00029304624,0.0101338625,1.5199184e-06,0.0066850185,0.0025767088
0.0071192086,0.0,0.0009851158,1.7285347e-06,0.0014135242,0.0010686815,0.0013532639,0.000579685,0.63757265,0.024179667
6.2584877e-07,0.0016346872,0.0002964437,0.9998955,0.00025501847,0.0039411187,0.015251547,1.8179417e-06,0.101032525,1.129508e-05
7.906556e-05,0.0,3.8444996e-06,4.7683716e-07,8.136034e-06,5.5402517e-05,0.0015230477,2.0861626e-07,0.9998027,1.4066696e-05
0.9941281,0.0,2.9802322e-07,0.0,0.0,0.0005554557,0.0005916357,7.1525574e-07,0.00509423,0.00023826957
0.18422526,1.4901161e-07,0.00057572126,1.1652708e-05,4.172325e-07,0.0052562356,0.16598901,2.2649765e-05,0.00012889504,5.581975e-05
0.99113977,0.0,9.23872e-07,2.3841858e-07,1.7881393e-07,0.0010818541,0.0012350082,3.159046e-05,7.605553e-05,0.0034202933
0.0,0.00029096007,0.001002878,0.99931484,0.9637699,0.99738777,0.4008525,2.5629997e-06,0.010864317,5.9604645e-08
0.06676379,5.9604645e-08,0.003767848,5.9604645e-08,3.9041042e-06,0.00031885505,0.00022545457,0.0037162304,0.00023004413,0.6467085
4.708767e-06,0.0,1.3709068e-06,0.9999988,3.5762787e-07,0.00016659498,0.000166744,1.4901161e-07,1.4573336e-05,2.0861626e-07
0.008252144,2.861023e-05,3.2782555e-07,8.940697e-08,0.0,0.0015479028,0.8950935,2.592802e-05,0.00012654066,0.0002978444
0.036262453,0.0,1.0281801e-05,8.940697e-08,0.0,4.4107437e-05,0.000423491,0.9846916,5.0634146e-05,0.00061556697
7.158518e-05,7.748604e-07,0.00017163157,0.99998057,0.00058978796,0.004081458,0.008603543,2.3841858e-07,0.034970403,5.155802e-06
8.881092e-06,0.9932982,8.6694956e-05,0.00013953447,1.3113022e-06,0.00523144,0.0037121177,1.7881393e-07,0.64253676,0.0004939437
1.5497208e-06,0.0,6.7055225e-06,4.4703484e-07,0.0,2.0563602e-06,3.9041042e-06,1.5616417e-05,2.5212765e-05,0.99999845
5.093217e-05,2.9802322e-06,0.000546664,3.5762787e-06,3.5762787e-07,9.688735e-05,0.0023175776,0.00010380149,0.016540527,0.9964246
0.7615776,0.0,1.2516975e-06,1.1026859e-06,2.0861626e-07,0.00021722913,0.00037643313,1.013279e-06,0.5747422,1.603365e-05
2.0861626e-07,4.7683716e-07,0.00015580654,6.970763e-05,1.6510487e-05,1.0,0.0017232299,2.7418137e-06,0.014971286,9.298325e-06
1.7881393e-07,1.2814999e-06,0.00010085106,0.99997884,0.99377716,0.00051012635,0.0035808384,9.834766e-07,0.0030331314,2.3841858e-07
0.0021103024,0.0,1.1920929e-07,9.23872e-07,0.0,3.6656857e-06,4.0769577e-05,0.99882585,2.7298927e-05,4.529953e-05
0.00023463368,0.0,3.874302e-07,2.9802322e-08,0.0,0.00017464161,0.0014528334,1.1920929e-07,0.99961025,7.724762e-05
0.9900248,0.0,9.536743e-07,4.172325e-07,0.0,0.0003106594,0.0008523762,2.3394823e-05,0.0001052022,0.0003798604
0.014156193,0.0,6.2584877e-07,0.00021624565,6.914139e-06,1.4573336e-05,1.50203705e-05,0.047092766,0.00066676736,0.016212672
3.1650066e-05,0.0,0.9999777,0.0006263256,4.3213367e-06,0.0003194809,0.001141429,2.3543835e-06,0.0010138154,1.0311604e-05
0.000151366,0.0,2.8312206e-06,4.4703484e-07,1.7881393e-07,3.3676624e-05,0.001050204,8.34465e-07,0.9998887,1.04904175e-05
1.5765429e-05,1.14142895e-05,4.1127205e-06,1.04904175e-05,1.0430813e-06,0.049577802,0.9925331,4.7683716e-07,0.037690192,0.002177745
0.0070275962,0.0,1.4603138e-06,4.7683716e-07,0.0,0.00021195412,0.0006109476,9.387732e-06,0.9551525,0.011900872
2.9802322e-08,8.4757805e-05,0.0017564893,0.00024583936,7.164478e-05,1.0,0.0034908354,0.0002515912,0.0037367344,2.0176172e-05
0.88340974,0.0,1.4007092e-06,5.662441e-07,1.7881393e-07,0.00016954541,0.00025099516,0.0119766295,0.021406949,0.0008946955
0.9548355,8.940697e-08,0.00010091066,2.3245811e-06,2.0861626e-07,0.00025773048,0.0008139014,0.0008778274,0.001295656,0.0031733215
0.0017424822,3.5464764e-06,5.710125e-05,8.6426735e-06,1.5050173e-05,0.00010320544,0.0027952194,0.0,0.99700594,0.00026607513
9.0420246e-05,2.503395e-06,4.172325e-07,2.3841858e-07,0.0,0.0012288094,0.9996043,2.9802322e-08,2.425909e-05,9.480119e-05
0.99566543,0.0,2.4437904e-06,0.0,0.0,0.00027808547,0.00018921494,1.8179417e-06,0.00034469366,0.00079753995
0.00015732646,5.9604645e-08,3.3974648e-06,0.9999658,3.5762787e-07,0.0014252067,0.0010686815,1.7881393e-07,0.0010879636,4.172325e-06
2.4020672e-05,0.0,4.4703484e-07,8.046627e-06,0.0,7.6293945e-06,2.4586916e-05,0.99966425,1.3649464e-05,6.2942505e-05
0.0009011924,0.0,7.033348e-06,5.662441e-07,2.0861626e-07,0.00026273727,0.0011866689,1.6987324e-06,0.99922705,8.6158514e-05
0.17507473,2.0861626e-06,3.1650066e-05,2.9802322e-08,2.9802322e-08,0.0008380413,0.0011797845,4.7683716e-07,0.58529514,0.03998086
2.8908253e-06,0.0,8.940697e-08,7.4505806e-06,0.0,1.5944242e-05,0.00015500188,0.99995565,0.0007516742,7.57575e-05
3.7282705e-05,1.0639429e-05,1.3649464e-05,9.23872e-07,1.4305115e-06,0.001851201,0.989952,2.4944544e-05,0.00035956502,0.0032483041
0.02101186,0.0,0.0002476871,2.2351742e-06,1.7881393e-07,0.0004274249,0.002102375,1.4156103e-05,0.97530144,0.0017091632
1.013279e-06,0.0,0.0,7.4505806e-07,0.0,2.9802322e-08,4.261732e-05,0.0,5.662441e-07,0.9999913
5.453825e-06,1.5467405e-05,0.026592433,7.942319e-05,9.834766e-07,0.0002551973,0.0124568045,5.4240227e-06,0.9779475,0.0025399327
0.021156162,0.0,6.7949295e-06,6.106496e-05,1.1920929e-07,0.00024676323,0.0036809146,0.00018885732,0.9891543,0.00018492341
2.3245811e-06,6.943941e-06,0.00016731024,0.00035730004,0.00013872981,0.99999964,0.0029078126,0.00012630224,0.003538549,1.2069941e-05
0.9982656,0.0,8.940697e-08,0.0,0.0,0.00065752864,0.00036677718,1.1920929e-07,4.7922134e-05,0.0011016428
0.9915066,0.0,8.940697e-08,2.2947788e-06,5.9604645e-08,0.0006132722,0.00071021914,5.096197e-06,0.0013387203,0.00034111738
0.95927334,2.9802322e-08,6.0498714e-06,1.7881393e-06,2.9802322e-08,0.0005708337,0.00060516596,0.0026879013,0.00054603815,0.0063434243
0.97918326,0.0,0.00034812093,1.1026859e-06,2.3841858e-07,0.0012209713,0.000911206,2.5779009e-05,4.774332e-05,0.0002155602
4.157424e-05,0.0,1.7881393e-07,1.7225742e-05,8.940697e-08,6.762147e-05,0.0007432699,8.940697e-08,0.99979365,1.8209219e-05
0.99171686,8.940697e-08,1.1622906e-06,5.364418e-07,3.2782555e-07,0.0006505251,0.00071170926,2.8908253e-06,0.00017502904,0.00454399
0.00018706918,1.8030405e-05,0.00042644143,0.0006918013,1.835823e-05,0.99999577,0.0031545758,4.529953e-06,0.0080987215,9.429455e-05
0.39197037,5.9604645e-08,3.1888485e-06,6.8962574e-05,8.940697e-08,0.0023682415,0.0007992983,2.0861626e-07,0.86648834,0.00023204088
0.11015549,0.0,3.3080578e-06,2.5302172e-05,5.9604645e-08,0.00039714575,0.0006546974,0.8676412,0.00031980872,0.0057646334
0.0011033714,0.99669534,0.0006274581,0.00010448694,8.672476e-06,0.0023227334,0.00017744303,8.702278e-06,0.009284556,0.0009845197
8.195639e-06,0.99940133,0.00052806735,0.01116249,9.715557e-05,0.004223138,0.00019845366,0.00014847517,0.095911115,0.00071945786
0.99819946,0.0,0.0,0.0,0.0,0.00051894784,0.00032234192,4.23193e-06,8.7320805e-06,0.00020822883
5.915761e-05,6.613135e-05,0.00065121055,0.0025284886,0.00014334917,0.9999945,0.0013784468,1.6391277e-06,0.065867215,4.0471554e-05
0.9925393,0.0,5.662441e-07,0.0,0.0,0.0006573796,0.00032699108,1.4901161e-07,0.00016239285,0.002958089
4.798174e-06,0.0,8.428097e-05,0.999961,0.8438901,0.0005173087,0.0009443462,3.5762787e-07,0.14490736,5.9604645e-08
0.0012043417,0.0,4.300475e-05,4.2259693e-05,2.0444393e-05,5.77271e-05,0.002076745,4.172325e-06,0.99912596,0.00036406517
0.32522365,0.0,1.7881393e-07,1.1920929e-07,1.4901161e-07,2.321601e-05,0.0001206696,0.53376824,0.0003976524,0.0062848628
0.02287355,0.0,3.3080578e-06,7.301569e-06,1.1920929e-07,0.00037914515,0.0004672408,3.6656857e-06,0.95739806,0.002763033
0.9951074,0.0,9.23872e-07,9.23872e-07,0.0,0.0028188527,0.00050756335,1.6987324e-06,2.5004148e-05,0.0022240877
0.0014741123,0.0,0.00038850307,0.00015175343,3.0428171e-05,0.00016111135,0.0009330809,6.982684e-05,0.99511933,0.0008291602
7.253885e-05,2.3841858e-07,4.4703484e-06,0.99996436,2.0861626e-07,0.00035879016,0.0028563738,0.0,0.037175834,0.00013229251
0.9946854,0.0,8.6426735e-07,0.0,5.9604645e-08,0.00078597665,0.0005443394,2.682209e-07,4.8726797e-05,0.0038974881
0.014736474,2.9802322e-08,1.4901161e-06,8.34465e-06,1.758337e-06,0.00033679605,0.0007709265,7.748604e-07,0.9902613,0.0006096065
2.0861626e-07,2.3245811e-06,0.00010877848,5.6892633e-05,5.066395e-07,1.0,0.0018417537,3.9041042e-06,0.0073236227,2.8908253e-06
0.69316924,0.0,6.8843365e-06,1.5735626e-05,8.34465e-07,0.0013708174,0.0010625124,2.3841858e-06,0.62495255,0.00012156367
0.00062063336,3.5762787e-07,6.854534e-06,7.3611736e-06,2.0861626e-07,0.0005941391,0.0055708587,3.2782555e-07,0.99643147,0.0028263628
0.00011885166,0.0,1.8447638e-05,0.9998822,5.364418e-07,0.00080931187,0.000860095,1.7881393e-06,0.00054228306,8.34465e-07
0.9031637,0.0,2.7120113e-06,3.5762787e-06,1.2367964e-05,0.0008650422,0.00023582578,0.0093610585,0.008345008,0.0011208951
3.0994415e-06,2.6345253e-05,0.00031778216,0.9999701,0.00025364757,0.007396698,0.08833712,1.4007092e-06,0.00017112494,3.993511e-06
2.771616e-06,0.0,4.8577785e-06,0.9999976,0.0013302565,0.00065869093,0.0013537109,2.9802322e-08,0.022083968,2.682209e-07
8.34465e-07,2.9802322e-08,5.364418e-07,1.4901161e-06,2.9802322e-08,0.0002837777,0.76448154,0.95070696,0.00034156442,3.296137e-05
7.393956e-05,2.9802322e-08,7.4505806e-07,1.3709068e-06,2.9802322e-07,6.5386295e-05,0.005747527,7.2717667e-06,0.03366345,0.95531595
5.751848e-06,2.682209e-07,0.00017049909,0.99996793,0.0048924685,0.0013035834,0.0021998286,1.7881393e-07,0.004897028,4.1127205e-06
0.15264186,6.467104e-06,9.924173e-06,0.0022289157,7.5399876e-06,0.000587523,0.00027099252,3.695488e-06,0.8537643,0.0031119883
2.0861626e-07,0.9992343,1.7821789e-05,0.26652157,5.6922436e-06,0.007000178,0.00030702353,0.0,0.9605372,1.31726265e-05
6.619096e-05,0.0,5.155802e-06,0.9999809,6.2286854e-06,0.00065913796,0.0003991425,1.1920929e-07,0.0008096993,3.4570694e-06
0.019967914,2.9802322e-08,1.3709068e-06,4.142523e-06,0.0,3.1024218e-05,0.0003644526,9.536743e-07,0.093319505,0.9828623
5.9604645e-08,0.0,1.937151e-06,0.9999964,0.00019431114,6.368756e-05,0.0011897385,1.4305115e-06,3.159046e-05,3.3468008e-05
0.0005095005,4.6491623e-06,5.9604645e-08,2.0861626e-07,0.0,0.010661423,0.8610686,0.0,0.59891665,0.008677393
0.00037917495,0.0,0.99959785,0.00024396181,9.673834e-05,0.0002462566,0.002153188,7.3313713e-06,0.0095458925,2.9861927e-05
0.9354111,0.0,1.9967556e-06,2.3841858e-07,5.364418e-07,0.000967294,0.0005316138,0.0010221004,0.00026839972,0.026684076
0.92221314,0.0,3.1292439e-06,2.30968e-05,2.9802322e-08,0.0009063482,0.0009677112,1.30832195e-05,0.22928515,0.0005168319
0.0003286004,3.2782555e-07,0.0021915436,0.00013294816,7.95722e-06,0.9998728,0.00044071674,0.00020876527,0.00075894594,5.1498413e-05
5.2452087e-06,0.0,3.874302e-07,0.0,0.0,2.9802322e-08,5.030632e-05,1.3709068e-06,1.1593103e-05,0.9999389
0.9969053,0.0,4.4703484e-07,8.940697e-08,0.0,0.00033599138,0.00026869774,4.23193e-06,0.00019988418,0.00024446845
0.00053322315,0.0,2.8908253e-06,7.4505806e-07,0.0,0.000264436,0.0008838773,6.2584877e-07,0.9995598,2.5063753e-05
0.8550954,0.0,6.902218e-05,3.5464764e-05,7.662177e-05,0.0012889802,0.00024408102,8.046627e-06,0.0059981644,0.031976163
0.95909,0.0,1.1920929e-07,1.7285347e-06,0.0,0.00060376525,0.00034284592,2.7120113e-06,0.038689762,0.0005259216
0.00020864606,0.0002335012,2.0861626e-06,4.0233135e-06,8.34465e-07,0.0027243793,0.9985965,2.682209e-07,0.0049346387,0.0009287298
0.5703466,2.682209e-07,0.49589983,5.6028366e-06,1.1026859e-06,0.0010157526,0.0015174448,0.010644525,0.0002745688,0.0016040504
0.8849485,0.0,0.00013837218,8.940697e-08,4.053116e-06,0.00059360266,0.00038003922,0.049096107,0.00014257431,0.008444309
0.000112354755,0.0,1.6212463e-05,1.1920929e-07,6.625056e-05,6.082654e-05,0.0028305948,0.00043046474,3.4809113e-05,0.9845139
2.1487474e-05,0.9898157,0.0015826225,0.0013418198,6.2555075e-05,0.006643176,0.004879713,0.0,0.3796295,0.013910502
0.98920375,5.9604645e-08,7.122755e-06,8.34465e-07,0.0,0.00095158815,0.0007762015,2.8640032e-05,8.59797e-05,0.011396617
2.3037195e-05,5.662441e-07,8.225441e-06,0.99988586,0.013348818,0.0010202825,0.005281836,2.9802322e-08,0.18776157,1.8775463e-06
0.17803332,5.9604645e-08,0.7370975,0.00012931228,1.4871359e-05,0.0014588237,0.00072199106,0.00043058395,0.025411963,0.0006045401
0.09389788,0.0,3.1888485e-06,1.9669533e-06,5.9604645e-08,0.0015490651,0.00080800056,1.04904175e-05,0.8679726,0.0114661455
0.0,1.2427568e-05,0.9565763,0.9782113,1.2814999e-05,0.00042143464,0.008051336,5.9604645e-08,0.9974518,2.9802322e-08
0.79182076,0.0,0.00011143088,7.882714e-05,2.9802322e-08,0.00050893426,0.0006738901,0.12343702,0.0008082688,0.0010486543
0.0011466146,2.0861626e-07,0.6884277,1.859665e-05,2.2411346e-05,0.00019323826,0.0047775507,2.9832125e-05,0.9841496,0.00053337216
0.95132375,0.0,2.503395e-06,4.261732e-06,2.6524067e-06,0.005805075,0.000849247,1.6391277e-06,0.0011070669,0.009242535
0.0,0.00020593405,0.00057044625,0.9998411,6.16312e-05,0.00026515126,0.019394845,8.612871e-06,0.9899324,2.9802322e-07
1.3321638e-05,0.0,7.1525574e-07,0.99999356,1.1920929e-07,0.0003233552,0.00050136447,2.3841858e-07,5.6952238e-05,2.0861626e-07
0.00086790323,9.536743e-06,0.00014230609,2.69413e-05,3.9041042e-06,0.0006521046,0.015583813,8.940697e-07,0.998091,0.00024163723
1.7881393e-07,0.9645952,0.0019716024,0.99949807,0.05395499,0.3392623,0.011734426,1.4901161e-07,0.12542191,1.4901161e-07
0.9384084,0.0,3.5464764e-05,8.285046e-06,1.4483929e-05,0.0048336387,0.0006798506,0.0057765245,0.00045335293,0.01897493
4.7385693e-06,0.9952712,0.0021658838,0.0015355945,5.185604e-06,0.009175837,0.003182143,1.4901161e-07,0.8664367,0.0002541244
0.99748635,0.0,0.0,1.013279e-06,0.0,0.0011743605,0.0002937019,2.9802322e-08,0.00018209219,0.00042048097
0.00033900142,0.0,2.9236078e-05,1.7881393e-06,5.00679e-06,2.887845e-05,0.0005174577,1.0877848e-05,0.9992285,5.108118e-05
0.0005106628,3.3080578e-06,0.00081828237,9.268522e-06,2.0861626e-07,0.0001808703,0.0013158917,3.0100346e-05,0.9799988,0.010987967
1.3709068e-06,0.99137855,0.0002001524,0.6817836,0.0026474893,0.008306026,0.0016089082,2.9802322e-08,0.22688967,0.00032147765
0.6980101,0.0,8.6426735e-07,2.1755695e-06,0.0,0.0005457103,0.0005765259,8.0764294e-05,0.3243656,0.000952214
0.0,9.208918e-06,0.00011861324,0.0048009753,6.1154366e-05,1.0,0.002279818,1.3679266e-05,0.012408197,2.3841858e-07
0.97051144,0.0,2.3841858e-06,1.1920929e-07,2.682209e-07,0.0005785823,0.0003399551,0.0028597116,6.657839e-05,0.013311148
1.3411045e-06,0.0,5.066395e-07,1.5884638e-05,5.9604645e-08,3.0398369e-06,0.00033438206,0.9933747,0.9740757,3.0726194e-05
4.068017e-05,0.9975024,0.0020322502,0.0045186877,2.3454428e-05,0.0055980682,0.0009191036,1.9967556e-06,0.8684981,0.00065377355
0.9413476,5.9604645e-08,1.5854836e-05,5.066395e-07,0.0,0.0008433461,0.0005746782,4.4703484e-06,4.2527914e-05,0.030267
5.570054e-05,0.00019860268,0.0010678768,0.0008946955,1.8179417e-05,0.9991424,0.07931322,1.7166138e-05,0.3482198,0.001478076
4.479289e-05,0.0,7.688999e-06,1.129508e-05,1.7881393e-07,4.082918e-05,0.0009160936,2.2947788e-06,0.9999274,4.7713518e-05
1.0609627e-05,0.9626682,0.0015400648,0.42779732,6.943941e-06,0.017518908,0.0031446218,1.7732382e-05,0.7525525,0.0041514933
5.8710575e-06,7.814169e-05,0.00042635202,0.12253359,0.023837894,0.9996419,0.025610894,0.00022807717,0.007465452,0.00037315488
1.3977289e-05,2.0861626e-07,9.208918e-06,5.9604645e-07,1.5795231e-06,0.00020286441,0.00044062734,0.04296711,0.0161767,0.924963
0.012978286,6.020069e-06,0.00022384524,0.8741226,7.6293945e-06,0.0012381375,0.0014845431,7.778406e-06,0.64252883,0.0006044507
9.846687e-05,0.0,2.3841858e-06,2.9802322e-07,0.0,0.00011190772,0.0027864277,6.4969063e-06,0.9998646,1.3709068e-05
4.005432e-05,0.0,7.6293945e-06,3.784895e-06,1.7881393e-07,1.180172e-05,0.00057438016,1.7374754e-05,0.9998342,5.8680773e-05
3.6358833e-06,8.940697e-08,1.3113022e-06,0.9999937,2.3245811e-06,0.0019656718,0.005181223,2.3841858e-07,0.02252388,7.4505806e-07
3.4302473e-05,1.6093254e-06,0.0011586547,4.6789646e-06,6.4074993e-06,0.9998679,0.0031011999,1.31726265e-05,0.080094844,0.0011288524
0.00022307038,3.5762787e-07,0.9987427,1.7464161e-05,1.1980534e-05,0.00088244677,0.0011103153,5.096197e-06,0.07231259,2.0891428e-05
0.9259044,0.0,3.695488e-06,1.0162592e-05,5.3048134e-06,0.0009393394,0.00028151274,0.0013155937,0.0006401241,0.029665709
4.902482e-05,3.710389e-05,1.1622906e-06,7.748604e-07,1.1146069e-05,0.007840276,0.9668602,1.1920929e-05,0.0003541112,0.00067687035
0.997648,0.0,1.4901161e-07,2.0861626e-07,0.0,0.0008699894,0.0003505051,2.771616e-06,0.00019341707,0.00012722611
1.8179417e-05,0.0,4.7683716e-07,0.99998343,0.0,0.0017212033,0.0020265281,2.9802322e-08,0.0023577213,1.7881393e-07
0.0007651746,1.4901161e-07,8.5532665e-06,1.1920929e-07,0.0,0.00018268824,0.8762655,8.34465e-07,0.0010682642,0.2880366
3.3289194e-05,2.9802322e-08,5.066395e-07,0.00010341406,2.9802322e-08,0.00019717216,0.0009726882,9.834766e-07,0.99993694,2.2262335e-05
0.03921917,8.940697e-08,2.4735928e-06,2.1755695e-06,2.9802322e-08,0.0020112693,0.0018641651,8.34465e-07,0.94491863,0.029699564
2.3841858e-07,0.7177368,0.011636555,0.9625509,8.636713e-05,0.0027807355,0.026672363,5.9604645e-08,0.99042594,8.761883e-06
0.9909518,0.0,8.34465e-07,1.1920929e-07,5.662441e-07,0.00041282177,0.0003015995,1.0281801e-05,0.00013795495,0.0014697313
0.9921967,0.0,3.9041042e-06,1.4901161e-06,0.0,0.0011987686,0.0015547276,1.4901161e-06,0.0021338165,0.000102728605
0.9273081,0.0,1.3113022e-06,9.834766e-07,2.9802322e-08,0.002417326,0.0013490021,8.940697e-06,0.004870534,0.013531655
0.0011779666,0.0,1.1622906e-06,2.682209e-07,4.2766333e-05,3.0219555e-05,0.003631711,6.67572e-06,0.99692166,0.00023561716
0.2420305,0.0,3.2186508e-06,1.8179417e-06,1.2218952e-06,0.0002863407,0.0008946955,9.745359e-06,0.871156,0.00033554435
0.00015768409,0.0,1.6093254e-06,6.687641e-05,0.0,5.7041645e-05,0.00042417645,0.99926245,0.0009870231,5.438924e-05
0.9963819,0.0,4.7683716e-07,1.4901161e-07,0.0,0.001539588,0.000526458,8.34465e-07,0.00021523237,0.00053334236
1.7881393e-07,0.00012609363,0.9528991,0.24204963,0.00094100833,0.99957335,0.022805154,2.1606684e-05,0.41804165,6.3180923e-06
0.35736382,0.0,5.9604645e-08,2.0712614e-05,2.3841858e-07,0.00069478154,0.00032174587,1.859665e-05,0.82577527,8.586049e-05
0.30227917,5.9604645e-08,0.022966743,3.8832426e-05,6.389618e-05,0.0007907152,0.0026814044,0.00023829937,0.0401026,0.006347686
0.005320728,0.0,0.0002898872,3.787875e-05,0.0031377971,0.00024351478,0.0014446974,5.841255e-06,0.9872768,0.00240919
0.00014662743,2.9802322e-08,3.516674e-06,0.0001732409,2.3841858e-07,0.00012022257,0.0010403097,5.722046e-06,0.9996508,0.00020518899
0.0041342974,1.7881393e-07,2.9802322e-06,8.34465e-06,2.5629997e-06,0.00935781,0.84621847,2.682209e-07,3.9190054e-05,0.002108544
0.005707592,0.0,1.2814999e-06,5.9604645e-08,0.0,0.0004349351,0.00062841177,8.34465e-07,0.9960711,0.001973331
0.98280895,0.0,1.2814999e-06,1.2934208e-05,1.1920929e-07,0.00062021613,0.00014925003,2.2649765e-06,9.998679e-05,0.049409658
0.99179924,0.0,4.7683716e-07,4.0233135e-06,5.9604645e-08,0.0011236072,0.0006761849,6.556511e-06,6.854534e-05,0.0018228292
0.0038036704,0.0,2.3841858e-07,1.2457371e-05,3.8444996e-06,0.00019052625,0.0005430579,0.9955443,0.0013934076,0.0017161369
7.122755e-06,2.3245811e-06,2.8163195e-05,0.0003041327,1.40964985e-05,0.99999833,0.00096175075,2.503395e-06,0.00012755394,6.118417e-05
0.0027123988,8.940697e-08,4.3421984e-05,5.722046e-06,3.874302e-07,0.0006119311,0.0039390028,0.00012388825,0.9908769,0.00065127015
0.00020349026,2.9802322e-08,0.00024551153,4.3809414e-06,2.7030706e-05,5.722046e-05,0.00051781535,8.940697e-07,0.9922552,0.004347414
3.5762787e-07,3.3676624e-06,0.9933274,6.219745e-05,4.0590763e-05,0.000605762,0.019982308,3.5762787e-07,0.99686813,1.1026859e-06
2.9802322e-07,0.00016140938,1.0341406e-05,0.99990666,4.887581e-06,0.005026579,0.11981863,4.7683716e-07,0.2768761,5.5104494e-05
2.9802322e-07,0.0,3.5762787e-07,0.0,0.0,2.9802322e-08,2.7000904e-05,2.9802322e-08,2.115965e-06,0.99997634
0.046730906,2.9802322e-08,0.0018624961,6.300211e-05,0.0014555752,0.00040850043,0.0015568733,2.464652e-05,0.56012505,0.009767085
0.023002416,2.0861626e-07,0.00029298663,0.00015816092,1.9133091e-05,0.0019303858,0.0059440434,0.00080767274,0.033214837,0.16031721
0.98095715,0.0,1.758337e-05,0.0,0.0,0.00022611022,0.000865221,0.0018852949,8.761883e-05,0.005813062
0.97228026,0.0,1.937151e-06,5.364418e-07,8.940697e-08,0.00048553944,0.00054332614,0.00076058507,0.0008288324,0.006479174
0.0005953014,0.83237755,0.0119846165,0.00026139617,2.2560358e-05,0.03184426,0.072977185,0.0001886189,0.15018705,0.024424136
0.00022161007,1.1920929e-07,0.000330925,2.0444393e-05,4.3213367e-06,0.00013285875,0.003160894,4.9978495e-05,0.018185914,0.9791934
4.4703484e-07,0.0,0.9996347,0.000649631,0.00453645,4.1007996e-05,0.0005749762,1.3709068e-06,0.9824263,2.2053719e-06
0.9523253,1.1920929e-07,0.029105157,1.1920929e-07,2.3841858e-07,0.00011384487,0.00019848347,0.00011792779,0.0012543201,0.00011488795
2.8908253e-06,0.002475202,0.049336582,0.99686885,2.7179718e-05,0.0007222891,0.0025009215,2.9802322e-08,0.7191968,0.0003145635
1.7285347e-05,0.99682325,0.00045397878,0.00049215555,9.834766e-07,0.0071539283,0.0031980276,2.0861626e-07,0.14254096,0.0022690892
0.00028717518,0.0,5.364418e-07,0.00015756488,1.013279e-06,0.0015293956,0.006500393,8.404255e-06,0.9990903,0.00018772483
8.34465e-07,1.2516975e-06,0.9995415,0.0006400049,1.0669231e-05,0.101356566,0.00088885427,1.7881393e-06,0.29839104,8.34465e-07
0.4110567,0.0,0.0,0.0,0.0,0.0003040135,0.00016874075,0.002070874,0.17953482,0.00026723742
0.23176661,0.0,0.00010383129,1.1503696e-05,1.5497208e-06,5.1170588e-05,0.00043734908,0.22121465,0.011594087,0.0039509237
0.93201315,0.0,2.0861626e-07,5.9604645e-08,0.0,7.5399876e-06,0.00013953447,0.0015578568,6.7055225e-06,3.477931e-05
0.0,1.4901161e-07,0.00010842085,1.3709068e-05,3.2186508e-06,0.9999999,0.001257211,5.543232e-06,0.9647509,9.208918e-06
0.48396653,0.0,1.5199184e-06,2.4139881e-05,2.3245811e-06,0.00038158894,0.00065103173,4.6789646e-06,0.6940785,0.0004736781
0.005492419,0.0,2.592802e-06,1.4007092e-06,0.0,0.00011277199,0.00021591783,0.0003643036,0.91507125,0.040602952
0.13341337,0.0,0.00030988455,3.2484531e-06,3.2782555e-06,0.0016734898,0.0027773976,8.5532665e-05,0.8864229,0.0052289367
0.0,1.3709068e-06,0.00010961294,1.5258789e-05,1.79708e-05,1.0,0.0013690889,3.695488e-06,0.71573913,6.6161156e-06
4.172325e-07,0.002496034,0.0069642067,0.016746074,0.00014352798,0.8833344,0.23285437,3.1113625e-05,0.0009331107,0.0011583567
0.44472355,5.811453e-06,0.00010615587,1.2010336e-05,6.556511e-07,0.00031626225,0.00033035874,0.0017752349,0.00029173493,0.5807357
2.5391579e-05,0.0,1.218915e-05,1.8954277e-05,2.592802e-06,0.000100404024,0.00018236041,0.99955153,0.000423342,0.0024372637
1.847744e-06,0.0,0.00021570921,0.0021126866,0.998888,4.4941902e-05,0.005027503,0.0002657771,0.4316917,0.0003093481
3.2186508e-06,0.009498656,0.007078916,5.4478645e-05,0.00072592497,0.9154123,0.3389786,3.3527613e-05,0.057798654,0.046902955
0.98766625,0.0,5.9604645e-07,5.751848e-06,1.7881393e-06,0.0011266172,0.00079086423,8.940697e-07,0.0031136274,0.0010675788
1.3589859e-05,8.940697e-08,5.662441e-07,0.9999721,2.9206276e-06,0.0013362765,0.0005283356,5.9604645e-08,0.009178698,6.2584877e-07
0.00058591366,3.874302e-07,0.0014852881,5.814433e-05,0.0010221004,0.0005277097,0.0062513947,1.3142824e-05,0.97921,0.0033297539
0.014986068,7.748604e-07,0.9677992,7.018447e-05,0.0053215325,0.0022020638,0.0034548342,0.0045554936,0.3485617,0.00061893463
0.0006608963,4.6789646e-06,1.4007092e-06,1.7881393e-07,5.9604645e-08,0.0021882653,0.9921425,6.604195e-05,0.0017812252,0.005972594
0.72594535,2.503395e-06,1.6987324e-05,1.6391277e-05,6.854534e-07,0.004636824,0.006313771,1.9967556e-06,0.24793121,0.008805811
3.1292439e-06,0.00023052096,0.009711236,0.0011641383,0.00045758486,0.92122304,0.4760209,0.0011725724,0.03949675,0.012302369
3.5762787e-05,2.2351742e-06,2.3841858e-06,6.2286854e-05,1.4364719e-05,0.9977585,0.59180367,4.440546e-06,0.010887206,0.00014936924
0.9939797,0.0,6.2584877e-07,4.6789646e-06,2.3841858e-07,0.0022118986,0.0003362596,8.910894e-06,0.00019344687,0.003193289
0.0066280067,1.2814999e-06,0.01295644,9.62615e-06,8.940697e-08,0.00022286177,0.000993371,3.772974e-05,0.020418555,0.9289081
2.5838614e-05,1.92523e-05,0.0003439784,0.00063705444,0.001052618,0.9996536,0.033373773,2.8133392e-05,0.3024673,0.0024659336
0.9769474,0.0,1.1920929e-06,8.940697e-08,2.3841858e-07,0.00037404895,0.00048553944,0.0007789731,0.0004605055,0.00024193525
2.3841858e-07,5.9604645e-08,0.99866647,0.9994769,5.9247017e-05,0.0003504157,0.0017849207,0.0,0.060907573,2.9802322e-08
0.45709786,1.1920929e-07,3.3080578e-06,4.1127205e-06,0.0,0.0016135871,0.0006210804,1.2874603e-05,0.8011434,0.0015078187
0.054997653,0.0,2.2649765e-06,6.645918e-06,6.2584877e-07,0.00046887994,0.0008867681,0.9740823,0.0004284978,0.0015952885
0.0005373955,0.0,7.1525574e-07,6.5892935e-05,0.0,1.1086464e-05,0.00010642409,0.87522775,0.0012190044,0.10169956
0.40387774,2.9802322e-08,1.591444e-05,2.82228e-05,2.026558e-06,0.0021030307,0.0056228936,9.635091e-05,0.49501258,0.007563591
0.970587,4.810095e-05,5.3197145e-05,1.6391277e-06,8.940697e-08,0.0014407933,0.0013927519,2.5391579e-05,0.000608027,0.036704242
0.075377524,1.1920929e-07,0.00012037158,3.3825636e-05,1.3113022e-06,0.0014388561,0.00086152554,1.6838312e-05,0.009021133,0.7116153
0.00018563867,8.940697e-08,0.00012436509,0.0015732646,0.9968202,0.00017088652,0.0011104643,1.1175871e-05,0.013302028,0.005210459
0.99498636,0.0,1.7881393e-06,8.940697e-08,2.3841858e-07,0.0006355047,0.00043067336,1.3560057e-05,1.4364719e-05,0.00072965026
3.9428473e-05,0.010127574,0.01244542,0.0020778477,0.00028383732,0.0038736165,0.45914474,1.758337e-06,0.85727566,0.0012130439
0.9548432,2.9802322e-08,1.0728836e-06,2.115965e-06,1.4901161e-07,0.00030481815,0.00040465593,3.5762787e-07,0.19307044,8.490682e-05
0.00023022294,0.0,2.9802322e-07,2.9802322e-07,3.874302e-07,0.000109404325,0.013660908,0.0,0.9577209,0.060881495
1.4901161e-07,0.9894289,0.00053218007,0.9998992,0.0010000765,0.010284841,0.019543827,2.9802322e-08,0.89975095,1.1026859e-06
0.992418,0.0,4.172325e-07,0.0,0.0,0.0011078715,0.00015857816,7.325411e-05,0.00015801191,0.0009973645
0.5195448,0.0,6.335974e-05,2.9802322e-08,5.9604645e-08,0.00010704994,0.00024530292,0.00020006299,1.0937452e-05,0.5629614
0.977215,0.0,1.4901161e-07,3.5762787e-07,0.0,0.00022637844,0.00024414062,0.0004929006,0.001308322,5.042553e-05
0.9270706,0.0,3.9041042e-06,6.28829e-06,1.3411045e-06,0.0024165213,0.000993073,4.670024e-05,0.00602749,0.050193727
0.14250153,0.0,1.1920929e-07,7.4505806e-07,2.9802322e-07,0.00055500865,0.0042392313,1.7881393e-07,0.095623344,0.34073192
0.9814156,0.0,0.00020039082,1.8179417e-06,1.1920929e-07,0.0032943487,0.0045652986,0.00010445714,0.0005477667,0.0027635098
0.9983486,0.0,1.7881393e-07,4.172325e-07,0.0,0.0011031628,0.00013768673,2.2947788e-06,0.0001347959,0.00036504865
1.013279e-06,0.0,0.0,7.4505806e-07,0.0,2.9802322e-08,4.261732e-05,0.0,5.662441e-07,0.9999913
1.013279e-06,0.0,0.0,7.4505806e-07,0.0,2.9802322e-08,4.2706728e-05,0.0,5.9604645e-07,0.9999913
9.23872e-07,0.9967402,5.5998564e-05,0.8716181,8.636713e-05,0.077340126,0.0044771135,1.7881393e-07,0.014932394,2.2619963e-05
1.719594e-05,0.9981779,0.004954785,9.915233e-05,2.5451183e-05,0.0043938756,0.00047820807,3.1888485e-06,0.036417753,0.00034028292
5.3048134e-06,1.4901161e-07,0.00278306,0.00021150708,0.99440104,3.9458275e-05,0.0007995069,0.000161767,0.77547544,0.00012007356
0.98464835,0.0,1.1920929e-07,4.172325e-07,1.7881393e-07,0.0007916391,0.00044724345,9.88245e-05,0.00015828013,0.0005597174
4.4196844e-05,4.7683716e-07,1.9788742e-05,0.00019994378,8.6426735e-07,0.001906842,0.07022601,5.722046e-06,0.9974302,0.0003400147
0.9894767,0.0,2.3305416e-05,2.6196241e-05,8.940697e-08,0.0017583966,0.0017848909,3.874302e-06,0.00012052059,0.00046366453
3.3080578e-05,1.1920929e-07,0.0013136864,0.99995303,0.004606068,0.0016699135,0.0010864437,9.23872e-07,8.3357096e-05,1.3202429e-05
2.3841858e-06,0.0,0.99462223,0.0015542507,0.37240607,0.00012752414,0.0009198189,6.8843365e-06,0.98267347,9.000301e-06
1.7911196e-05,8.6426735e-07,0.000682801,7.122755e-06,7.033348e-06,0.00028821826,0.0016759038,5.811453e-06,0.012590647,0.99452186
1.013279e-06,0.0,0.0,7.4505806e-07,0.0,2.9802322e-08,4.2706728e-05,0.0,5.9604645e-07,0.9999913
0.00011008978,0.0,3.2484531e-06,0.9999664,1.4901161e-07,0.0003209412,0.002377957,6.2584877e-07,0.0001013577,1.1622906e-06
0.9437922,0.0,9.536743e-07,1.013279e-06,1.6391277e-06,0.005176872,0.0028163195,0.0012264252,0.00011384487,0.0032715797
0.0419541,0.0,2.5600195e-05,1.6987324e-06,2.0861626e-07,0.00080007315,0.0007942319,8.583069e-06,0.9807262,0.00033208728
0.9963888,0.0,1.1920929e-06,2.9802322e-08,5.9604645e-08,0.00035598874,0.0006170571,7.212162e-06,2.5063753e-05,0.0004388392
0.96104693,0.0,4.5210123e-05,1.9073486e-06,3.5762787e-07,0.004097849,0.0007687211,7.927418e-06,0.00012713671,0.008905351
0.0031775236,5.930662e-06,2.2351742e-06,2.95043e-06,4.172325e-07,0.0039491057,0.99145603,1.2665987e-05,0.013352573,0.00023299456
0.09813452,1.4305115e-06,8.660555e-05,0.03876704,0.008133471,0.0013363957,0.0011301637,4.87864e-05,0.19457912,0.015902191
0.0023095906,0.0,5.9604645e-07,9.655952e-06,2.115965e-06,0.00021594763,0.005550474,3.5762787e-07,0.99888295,1.1771917e-05
0.97852814,0.0,7.4505806e-07,5.9604645e-07,0.0,0.0007570088,0.00032410026,0.005350113,0.00026258826,0.001404196
1.7881393e-07,8.2701445e-05,0.8426162,0.9997782,0.0033165812,0.02051124,0.03178209,1.7881393e-07,0.5643507,3.5762787e-07
0.0,4.0233135e-05,5.301833e-05,0.9999528,2.5957823e-05,0.0007738173,0.2954583,1.7881393e-07,0.9939654,1.7881393e-07
7.748604e-07,9.23872e-07,0.9976251,0.99859834,1.40070915e-05,0.0011153519,0.0052356124,3.2782555e-07,0.0038673282,2.503395e-06
0.816962,2.9802322e-08,0.000508219,2.026558e-06,9.834766e-07,0.00038298965,0.0006187558,0.019078314,0.052342862,0.0017142296
0.007288933,0.0,4.4703484e-07,2.4735928e-06,0.0,0.002662152,0.0015168786,2.464652e-05,0.99059045,0.00036007166
0.003679037,0.00019130111,4.5329332e-05,3.951788e-05,7.748604e-07,0.0017141998,0.03413847,5.662441e-07,0.9912576,0.0023888648
0.007021159,0.0,7.2419643e-06,2.232194e-05,2.0861626e-07,0.00037139654,0.0021694303,5.185604e-06,0.99556804,0.00017148256
0.99437165,0.0,4.7683716e-07,1.7881393e-07,2.9802322e-08,0.0005633831,0.0005815029,1.40964985e-05,0.00011360645,0.00070008636
8.940697e-08,0.0001219213,1.5109777e-05,0.9999764,1.1354685e-05,0.0019919872,0.027595311,0.0,0.98089004,1.937151e-06
2.9802322e-08,2.977252e-05,0.9640333,2.2172928e-05,0.00013053417,0.00037816167,0.6999122,1.9967556e-06,0.99792576,1.9669533e-06
0.27901533,4.4703484e-07,1.2218952e-06,2.8908253e-06,0.0,0.00016450882,0.0006196797,2.0861626e-07,0.89481777,9.1552734e-05
0.9961151,0.0,4.7683716e-07,2.0861626e-07,5.9604645e-08,0.0011965036,0.00058433414,5.662441e-07,4.8458576e-05,0.0007663667
4.9471855e-06,5.9604645e-07,2.7090311e-05,0.9999956,0.0009392798,0.0004155934,0.004731208,5.9604645e-08,0.047202885,1.3947487e-05
8.46386e-06,1.0162592e-05,0.035983473,0.99992406,0.0017776787,0.0004682541,0.011145532,5.9604645e-08,0.0015036166,1.180172e-05
2.7567148e-05,0.9970013,0.00046890974,3.963709e-05,3.5762787e-07,0.011596054,0.001511842,5.9604645e-07,0.0045529604,0.0005863309
0.003077656,2.9802322e-08,4.23193e-06,3.1590462e-06,4.0471554e-05,2.5838614e-05,0.00087213516,6.5863132e-06,0.99767137,9.804964e-06
5.5134296e-06,0.017807871,9.000301e-06,0.029845268,1.7851591e-05,0.041900933,0.8164184,8.046627e-07,0.17806134,0.019878715
0.0012476146,0.9893054,5.1677227e-05,7.8082085e-06,5.662441e-07,0.0011640489,0.0003543198,0.0,0.008116752,0.00054985285
0.9911498,0.0,5.066395e-07,5.066395e-07,0.0,0.0013669729,0.00068613887,2.8312206e-06,0.0017652512,0.00029543042
1.013279e-06,0.0,0.0,7.4505806e-07,0.0,2.9802322e-08,4.2706728e-05,0.0,5.9604645e-07,0.9999913
0.004755795,1.7881393e-07,1.847744e-06,6.7055225e-06,0.0,1.9431114e-05,0.00052553415,2.9802322e-07,0.014039904,0.9949055
0.00041252375,1.1920929e-07,0.00018393993,4.61936e-06,6.2584877e-07,0.00059992075,0.0036794543,0.000166893,0.998798,0.00047165155
6.0796738e-06,0.0,8.752942e-05,6.645918e-06,0.009323776,0.000114917755,0.0010904372,4.056096e-05,0.0025992393,0.97210085
0.9978323,0.0,2.682209e-07,2.9802322e-08,0.0,0.0018998682,0.0007292628,7.122755e-06,2.9802322e-05,6.866455e-05
0.9971335,0.0,5.9604645e-07,2.9802322e-08,0.0,0.001039356,0.00066936016,2.8312206e-06,2.0503998e-05,0.00036472082
0.0011222363,1.7881393e-07,2.682209e-06,4.6789646e-06,0.0,0.0004748106,0.0012072623,3.7550926e-06,0.9973534,0.0030315518
0.00023826957,0.28076005,0.069448054,0.00014173985,2.2172928e-05,0.0072672963,0.0050322115,5.3942204e-06,0.008043766,0.017623961
0.00012251735,0.0,9.62615e-06,7.748604e-07,0.0,0.0011141002,0.003516674,0.00013121963,0.9971217,0.0032267869
2.3841858e-06,0.097749025,0.01048708,0.10492623,0.027713656,0.99988544,0.112115026,0.0013191104,0.7490249,3.3020973e-05
5.310774e-05,8.34465e-07,0.00061643124,1.4901161e-06,1.1920929e-07,0.6445687,0.023436338,1.013279e-06,0.050855964,0.04346943
0.003039062,0.0,2.9802322e-07,6.28829e-06,1.4901161e-07,0.00021401048,0.0005309582,2.3841858e-07,0.99851763,8.586049e-05
0.8279055,6.7949295e-06,0.0008274913,1.0728836e-06,1.4901161e-07,0.0008775592,0.0005427301,1.5884638e-05,0.00019678473,0.057031214
0.012252152,2.9802322e-08,0.99721205,1.6391277e-06,2.9802322e-08,0.0003195107,0.0006748736,0.000116825104,9.49204e-05,4.068017e-05
0.9815788,0.0,5.811453e-06,3.3706427e-05,0.0,0.0049203634,0.00045737624,3.516674e-06,0.0041736066,0.00030496716
0.34637424,1.1920929e-07,3.874302e-07,3.0398369e-06,0.0,0.0007428825,0.00085482,0.0049589574,0.5197079,0.0020437837
2.95043e-06,0.995353,0.00060617924,0.008401394,0.005785376,0.007704854,0.00055128336,1.0430813e-06,0.8153738,0.00013619661
0.00015112758,0.0,5.066395e-07,0.99997914,2.9802322e-08,0.00062543154,0.00048846006,6.2584877e-07,0.00021260977,1.5497208e-06
5.662441e-07,0.0077518225,0.0118137,0.7226997,0.0031000674,0.0002052784,0.0018726587,8.940697e-08,0.9969207,8.493662e-06
0.9965341,0.0,2.4437904e-06,1.1920929e-07,0.0,0.0016278923,0.00020211935,8.940697e-07,2.0176172e-05,0.00022143126
0.00019749999,2.9802322e-08,0.00041386485,3.5762787e-06,5.364418e-07,0.9999721,0.001496762,8.34465e-06,0.009416372,0.00039219856
0.99523556,0.0,2.9802322e-07,1.3113022e-06,0.0,0.0011609793,0.0012183785,1.2814999e-05,4.464388e-05,0.00067964196
1.7881393e-07,2.771616e-06,0.00015586615,0.00010544062,1.5497208e-06,0.99992824,0.0075603426,2.1904707e-05,0.98756546,2.554059e-05
7.748604e-07,2.6226044e-06,5.364418e-07,0.9999997,2.771616e-06,0.0040965676,0.037077308,0.0,0.0006992221,5.9604645e-08
8.6426735e-07,0.9899246,0.00042441487,0.9981379,0.00016358495,0.011858374,0.001190722,2.9802322e-08,0.7967641,7.390976e-06
4.2021275e-06,6.854534e-07,9.9271536e-05,2.7567148e-05,1.3887882e-05,1.0,0.0013363063,8.046627e-06,0.015614718,4.6789646e-06
0.0020827353,0.0,1.4007092e-06,1.4901161e-07,1.4901161e-07,3.0428171e-05,0.00013744831,1.66893e-06,0.99890924,1.9669533e-06
0.011323303,0.0,2.9802322e-08,8.940697e-08,5.9604645e-08,1.424551e-05,0.00019830465,5.5134296e-06,0.978367,0.00052288175
0.012491137,0.0,9.36389e-05,1.001358e-05,0.017913371,0.00033566356,0.0013092756,0.000421077,0.7514498,0.0010865033
0.0024466515,3.8444996e-06,0.0139706135,1.0877848e-05,1.874566e-05,6.183982e-05,0.0026907027,5.4240227e-06,0.9973409,3.6031008e-05
0.7390983,8.940697e-08,8.478761e-05,1.013279e-06,1.1026859e-06,0.022488177,0.001303196,0.00086662173,0.0011645854,0.002507329
0.85859466,0.0,9.536743e-06,1.5497208e-06,8.940697e-08,0.1707229,0.001897037,1.6242266e-05,0.00037908554,0.00020822883
0.008198947,2.771616e-05,5.942583e-05,0.00011947751,9.208918e-06,0.00085246563,0.053361773,0.31998706,0.029216886,0.07665345
0.9954216,0.0,2.0861626e-07,8.940697e-08,0.0,0.00011831522,0.00012427568,1.9073486e-06,6.866455e-05,0.0038754642
0.000109523535,0.0,0.0014239848,2.4735928e-06,3.3915043e-05,0.000120162964,0.0018548071,1.4543533e-05,0.99834186,0.0022942722
4.5001507e-06,0.9995942,5.3942204e-05,0.0077203214,0.00011739135,0.004467249,0.00020548701,0.0,0.9173355,4.1157007e-05
0.0,0.0,0.9988605,0.99951434,0.947871,0.0015701056,0.025018334,4.172325e-07,0.0015177131,2.682209e-07
5.6922436e-06,0.99940264,0.00066268444,7.683039e-05,3.0398369e-06,0.015686572,0.00050738454,5.066395e-07,0.0051047206,0.00045740604
0.99649704,0.0,4.172325e-07,4.4703484e-07,0.0,0.0025911033,0.0008084774,2.3841858e-06,0.00047320127,0.0002617538
0.00036269426,0.003726393,1.859665e-05,0.00017082691,1.1920929e-07,0.0015776753,0.0024515986,0.0,0.9758512,0.009085447
0.021463215,0.0,2.2053719e-06,8.940697e-08,0.0,0.0007238984,0.003090173,0.0,0.9892398,0.0001001358
0.00012475252,2.8908253e-06,6.854534e-07,2.95043e-06,1.0430813e-06,0.005592227,0.9976479,5.9604645e-08,0.0019194782,0.0054153204
0.025827497,0.0,9.924173e-06,1.3411045e-06,4.172325e-07,0.00020465255,0.00065636635,0.00037938356,0.98012173,0.00012129545
0.00010052323,8.940697e-08,0.0020528734,2.2351742e-06,1.6093254e-06,2.2053719e-05,0.0001642704,0.0022258162,0.109775424,0.90699553
0.9928566,0.0,2.3841858e-06,6.4969063e-06,0.0,0.0012111962,0.00067925453,1.0609627e-05,0.00012111664,0.00042676926
0.06250605,0.0,5.096197e-06,4.4703484e-06,1.937151e-06,0.00027382374,0.0016844571,1.1920929e-06,0.00274989,0.9662866
0.000849545,0.0,0.7894499,7.748604e-07,0.0038508773,8.08835e-05,9.1940165e-05,1.5258789e-05,0.0011501908,0.005428165
5.9604645e-08,9.551644e-05,1.2814999e-06,0.9999931,1.1026859e-06,0.005446911,0.800931,3.5762787e-07,0.00013422966,8.046627e-07
0.9938994,0.0,2.503395e-06,7.1525574e-07,0.0,0.0019793808,0.00032958388,3.9219856e-05,9.804964e-06,0.00023907423
0.7631987,5.9604645e-08,0.00019744039,1.4066696e-05,0.0,0.0007778704,0.0003232062,0.004044354,0.00065016747,0.069595575
2.9802322e-08,5.5372715e-05,0.0003567338,0.26534098,0.00051918626,1.0,0.0067960024,2.8908253e-06,0.005994171,2.861023e-06
0.00024294853,8.940697e-08,3.1888485e-06,1.7881393e-07,1.2516975e-06,0.00080132484,0.0044931173,0.00011563301,8.767843e-05,0.9946128
1.1920929e-06,0.9973624,0.000729084,0.002382636,0.00010064244,0.8709971,0.00010600686,3.0100346e-06,0.0787701,1.0222197e-05
0.3367101,0.0,5.632639e-06,5.9604645e-08,3.2901764e-05,0.00010922551,0.00036513805,0.0710527,4.684925e-05,0.14478353
0.99652267,0.0,6.2584877e-07,4.172325e-07,0.0,0.0007818639,0.00044074655,7.033348e-06,3.2246113e-05,0.00037148595
0.83349633,0.0,2.3841858e-07,3.7431717e-05,0.0,0.0006310642,0.00053855777,2.9832125e-05,0.21116495,0.00021839142
0.3058566,1.1891127e-05,0.09779939,3.1292439e-06,5.3346157e-06,0.003895998,0.0023650527,0.0090406835,0.022910923,0.06512517
2.2739172e-05,2.9802322e-08,2.3841858e-07,1.0728836e-06,0.0,0.00013494492,0.0014753342,0.0,0.9992479,8.3982944e-05
0.9974536,0.0,2.9802322e-07,1.1920929e-07,8.940697e-08,0.00074467063,0.0003964603,9.506941e-06,1.9669533e-05,0.00046250224
0.0009963214,0.0,5.662441e-07,1.013279e-06,0.0,5.2124262e-05,0.0005105734,6.2584877e-07,0.99960375,4.249811e-05
0.0507465,0.0,5.632639e-06,8.940697e-08,6.467104e-06,0.00014463067,0.00022393465,7.340312e-05,0.9770369,0.0006636083
0.0014300942,0.0,2.503395e-06,6.9737434e-06,7.748604e-07,0.00018781424,0.0007148385,4.5001507e-06,0.9990172,6.842613e-05
1.66893e-06,1.4007092e-06,0.00012037158,0.00021070242,9.417534e-06,0.9999999,0.0034691393,2.1755695e-05,0.03784734,9.655952e-06
0.00027483702,5.8621168e-05,0.0009889305,5.6028366e-06,5.453825e-06,0.005182117,0.9978453,4.7683716e-07,0.0001668036,3.2156706e-05
1.23381615e-05,0.99880725,6.0528517e-05,0.030249119,6.854534e-07,0.03508231,0.00044575334,2.9802322e-08,0.2837055,0.00022470951
0.00056385994,0.9824157,0.00060367584,8.818507e-05,1.8775463e-06,0.010410935,0.0013098419,6.854534e-07,0.002245456,0.02507785
8.7320805e-06,0.8737948,0.0029752254,4.634261e-05,8.940697e-08,0.0018622577,0.0037137866,4.7683716e-07,0.9991288,2.2113323e-05
0.14534542,0.0,0.0,1.4901161e-07,0.0,2.95043e-06,3.796816e-05,0.9299046,3.913045e-05,1.9967556e-05
0.0,0.0,1.14142895e-05,0.9999944,0.041235387,0.00017595291,0.0017388165,1.7881393e-07,0.006311327,3.0696392e-06
