0,1,2,3,4,5,6,7,8,9
0.9894823,0.0,9.834766e-07,1.7285347e-06,8.940697e-08,0.0010663569,0.00077834725,2.1457672e-06,0.0016692579,0.0026085675
0.98756397,0.0,4.172325e-07,2.9802322e-07,0.0,0.000118255615,0.0002437532,0.0031079054,8.136034e-06,0.0008139014
1.6987324e-06,1.0728836e-06,0.0027493536,0.00093621016,0.9915706,0.9999825,0.0042913854,2.4437904e-06,0.0017277598,4.9471855e-06
0.0,1.2010336e-05,1.1920929e-07,0.99999523,1.4901161e-07,0.0019334555,0.91600573,5.9604645e-08,2.348423e-05,5.364418e-07
0.00028151274,0.0,5.364418e-07,0.9999818,0.0,0.00047561526,0.00052058697,1.1920929e-07,0.0003952086,5.066395e-07
0.98737013,0.0,2.3841858e-07,0.0,0.0,1.7017126e-05,0.00011998415,0.0037705302,7.122755e-06,0.00011533499
0.002089858,0.0,2.503395e-06,1.9192696e-05,2.682209e-07,0.0007098317,0.0022952259,1.4901161e-07,0.99630773,0.00035503507
0.0,0.0,9.4771385e-06,0.99999994,0.99900854,0.00022739172,0.00023016334,1.7881393e-07,1.5825033e-05,0.0
1.7881393e-07,0.0,2.682209e-07,0.8611419,1.4901161e-07,5.3972006e-05,0.0009866059,8.6426735e-06,0.9998933,1.1920929e-07
6.4373016e-06,8.85129e-06,5.7816505e-06,2.7418137e-06,1.3828278e-05,0.0024051666,0.9995888,1.692772e-05,0.0021666586,0.0014526844
0.0001283288,2.9802322e-08,0.420026,2.3394823e-05,5.3942204e-06,0.0003130734,0.012266725,3.8713217e-05,0.99087936,5.1796436e-05
0.0028478503,0.0,1.13248825e-05,1.1920929e-07,7.1525574e-07,1.8030405e-05,0.00064602494,8.6426735e-07,0.9989516,2.682209e-07
1.6987324e-06,0.127743,9.867549e-05,0.99665284,4.172325e-07,0.0030282438,0.0012164414,0.0,0.9347553,9.387732e-06
0.00014841557,0.9305905,0.009828508,7.414818e-05,4.5329332e-05,0.00086966157,0.00079479814,2.2947788e-06,0.009523451,0.04977843
0.10431352,0.0,2.8640032e-05,8.34465e-07,5.9604645e-08,0.0003565848,0.001552999,5.698204e-05,0.95492136,0.00011408329
0.006487608,0.007861376,0.0012118816,0.00016313791,5.850196e-05,0.0014130175,0.6443527,2.899766e-05,0.6202139,0.003856361
2.3841858e-06,0.0,3.0994415e-06,0.99998665,4.4107437e-06,0.00032678246,0.004902929,0.0,0.42210865,1.1920929e-07
0.9858385,2.9802322e-08,1.1503696e-05,1.7881393e-06,1.1920929e-07,0.00028055906,0.00019276142,5.6922436e-06,0.00033402443,0.0042939484
8.046627e-07,0.0011785328,0.45264173,4.348159e-05,0.0026338995,0.008091986,0.7891718,0.0007686317,0.88718057,0.00023213029
1.2755394e-05,2.3841858e-07,2.9802322e-07,9.387732e-06,9.834766e-07,0.00013914704,0.7756551,0.00024589896,0.940719,0.00042057037
0.99847734,0.0,4.172325e-07,5.9604645e-08,0.0,0.0003848672,0.00028276443,5.751848e-06,1.886487e-05,0.00026914477
0.012217075,1.8775463e-06,0.96489835,0.00023183227,3.5762787e-07,0.00043162704,0.0013209283,0.00018891692,0.0001540184,0.00024667382
0.99839234,0.0,0.0,0.0,5.9604645e-08,9.825826e-05,0.00013646483,5.662441e-07,6.440282e-05,0.00046274066
0.015037715,5.4836273e-06,0.00088459253,0.11429936,3.1292439e-06,0.0017345846,0.0034369528,4.506111e-05,0.9347729,0.002223283
0.0014908314,0.0,2.115965e-06,5.930662e-06,2.3841858e-07,0.00017938018,0.0007225573,1.1384487e-05,0.9980213,0.00011301041
5.096197e-06,0.0013745129,0.47717318,3.6120415e-05,0.0006749034,0.9583665,0.039686084,0.00885728,0.03699571,0.0039853454
0.0013926625,0.00080016255,0.00024604797,5.9604645e-08,2.0861626e-07,0.0012443066,0.5470526,0.00015699863,0.0003285706,0.0029716492
0.9046259,0.0,4.0233135e-06,0.0,0.0,1.0281801e-05,0.00011044741,0.11997998,1.04904175e-05,0.0010728836
0.1093618,0.0,7.3611736e-06,1.3828278e-05,8.940697e-08,1.2725592e-05,0.00033256412,0.94902027,0.005460322,0.00020572543
3.0398369e-06,0.99363697,0.00010228157,0.3630318,1.8775463e-06,0.0057061613,0.011182964,0.0,0.9954697,2.6226044e-05
4.339218e-05,1.2785196e-05,1.1920929e-07,8.34465e-07,6.854534e-07,0.0014409721,0.9979133,1.7881393e-07,0.0016061366,0.0033410192
1.6272068e-05,5.5134296e-06,1.7881393e-07,4.4703484e-06,2.3841858e-07,0.0021274388,0.99804425,8.34465e-07,0.021566212,0.00032699108
0.009200066,1.2516975e-06,1.937151e-06,1.66893e-06,4.261732e-06,0.0005593598,0.9879478,1.1920929e-07,4.8816204e-05,5.2571297e-05
1.7881393e-07,2.9802322e-08,4.708767e-06,0.9999993,6.863475e-05,0.00044310093,0.006121099,2.3245811e-06,5.9336424e-05,8.940697e-08
0.81850827,0.0,1.013279e-06,2.9802322e-07,6.854534e-07,0.00029149652,0.0006490052,1.5854836e-05,0.41090792,0.0005271733
0.9987792,5.9604645e-08,8.046627e-07,0.0,0.0,0.00020310283,3.376603e-05,2.0861626e-07,7.0929527e-06,8.404255e-06
0.95009315,0.0,1.2814999e-06,1.1920929e-07,2.9802322e-08,0.001093328,0.00083741546,4.172325e-07,0.0754517,0.0026852489
0.99888355,0.0,8.940697e-08,0.0,0.0,7.942319e-05,0.00019097328,2.0861626e-07,1.5497208e-05,1.2010336e-05
0.98522305,0.0,1.2218952e-06,1.1920929e-07,2.9802322e-08,0.00051161647,0.0005593598,6.7055225e-06,8.7201595e-05,0.021493286
0.000104129314,0.0,4.172325e-07,1.3649464e-05,0.0,0.00010821223,0.0008042753,8.34465e-07,0.999791,9.894371e-06
2.115965e-06,1.4901161e-07,0.9803353,0.00037878752,3.120303e-05,0.00017216802,0.0023357868,0.00022280216,0.9945535,6.735325e-06
0.8808116,0.0,5.662441e-07,3.0100346e-06,7.659197e-06,0.0010330975,0.0016262233,1.4901161e-07,0.18113178,0.00057950616
1.1622906e-06,5.9604645e-07,0.0033171475,8.037686e-05,6.4074993e-06,0.99999845,0.004408866,5.8352947e-05,0.10442102,4.1127205e-06
5.364418e-07,0.99965477,1.680851e-05,0.002351284,9.089708e-06,0.002794534,3.2275915e-05,0.0,0.9874254,8.85129e-06
0.0001437068,5.9604645e-08,4.5597553e-06,6.017089e-05,5.9604645e-08,0.00012642145,0.014534026,3.427267e-06,0.9997375,2.7865171e-05
0.0023527443,0.0,1.013279e-06,8.34465e-07,0.0,5.4836273e-06,6.41644e-05,0.99897915,0.003468901,6.136298e-05
0.06817004,0.0,6.043911e-05,2.9802322e-07,1.0728836e-06,0.0002374649,0.0005722046,6.7055225e-06,0.98219,8.547306e-05
0.0044619143,1.3113022e-06,0.00012233853,0.009926856,0.00015479326,0.00088855624,0.003985524,0.00015753508,0.9764502,0.0015546381
2.3514032e-05,0.9994669,0.00011822581,0.00051862,1.719594e-05,0.0042764544,5.9872866e-05,0.0,0.44150743,0.0009672344
0.9990875,0.0,0.0,0.0,0.0,0.00015711784,7.915497e-05,2.9802322e-07,5.5015087e-05,1.4841557e-05
0.0005133748,5.066395e-07,0.001257807,4.1127205e-06,2.7120113e-06,0.9560443,0.016251445,0.00038707256,0.0026408732,0.00011602044
7.2717667e-06,0.997542,6.222725e-05,1.129508e-05,4.887581e-06,0.0018869936,0.0002452731,6.556511e-07,0.0083192885,0.0017448664
5.9604645e-07,1.1026859e-06,0.0005045235,3.9041042e-06,1.7136335e-05,0.9999999,0.004712671,2.95043e-06,0.6268241,1.4454126e-05
0.1684255,0.0,1.2218952e-06,8.6426735e-07,0.0,0.00030508637,0.0002630651,0.0040964484,0.81907046,0.0018250942
0.98173594,2.9802322e-08,4.5359135e-05,2.682209e-07,5.364418e-06,0.0004452169,0.00074627995,4.2915344e-06,0.0009797215,0.002371639
8.34465e-07,0.99991745,1.1175871e-05,0.00051632524,0.00020542741,0.011017084,6.106496e-05,0.0,0.121676564,0.00023978949
0.93526816,1.4901161e-07,1.4007092e-06,6.2584877e-07,0.0,0.0006581545,0.0009875298,1.4573336e-05,0.069229186,0.019921392
3.33786e-06,0.99422246,0.0082010925,6.0528517e-05,1.1622906e-06,0.008560777,0.0023425221,2.8908253e-06,0.0010460317,0.0015252233
0.97824514,0.0,1.2099743e-05,1.4901161e-07,2.0861626e-07,0.00039890409,0.00048586726,0.0002207756,0.0035462976,0.0033806264
2.5480986e-05,0.9968481,3.9815903e-05,0.00038674474,5.7071447e-05,0.0036537647,0.0009855926,0.0,0.10650489,0.004476398
0.99879885,0.0,9.23872e-07,0.0,0.0,0.000223279,0.00014436245,2.0384789e-05,4.4226646e-05,4.3541193e-05
0.022655278,5.364418e-07,2.1070242e-05,6.2584877e-07,1.6987324e-06,0.9747815,0.0057839453,5.155802e-06,0.39537317,0.0005122721
1.4543533e-05,4.23193e-06,0.0034655333,0.00060275197,0.99301714,0.9996774,0.0066694617,1.3023615e-05,0.0025792718,5.7011843e-05
1.1831522e-05,1.0192394e-05,0.0,1.4901161e-07,0.0,2.3812056e-05,0.00084504485,0.0,0.26660556,0.9549403
0.09065747,9.834766e-07,6.556511e-05,1.1652708e-05,1.937151e-06,0.00025761127,0.0064184666,7.1525574e-07,0.52456385,0.075287014
0.9971884,0.0,1.1920929e-06,8.940697e-08,0.0,0.00018519163,0.0002233684,1.9431114e-05,8.9764595e-05,0.0001462698
0.9967507,0.0,5.9604645e-07,2.9802322e-08,0.0,0.00015455484,0.00012084842,0.00096550584,5.298853e-05,9.533763e-05
1.8179417e-06,0.0,0.00023707747,1.2218952e-06,0.0074891746,2.3245811e-06,0.0017666221,2.6226044e-06,0.99991953,2.8759241e-05
0.0010749698,4.172325e-07,0.0011083186,1.579523e-05,2.2053719e-06,0.0003118217,0.0022468865,0.24023673,0.839519,0.0034374297
0.001832962,0.0,8.940697e-08,0.0,0.0,1.4901161e-07,1.6272068e-05,0.9997058,9.119511e-06,1.2516975e-06
0.12811533,0.0,9.536743e-07,2.9802322e-06,0.0,0.00026640296,0.0002168417,2.3841858e-07,0.92866147,0.0005514324
0.9970232,0.0,0.0,8.940697e-08,2.9802322e-08,0.0003453791,0.00043570995,4.7683716e-06,0.00015452504,0.00048562884
3.874302e-06,0.0,4.3809414e-06,0.9999893,4.6491623e-06,0.00034865737,0.0015646815,5.364418e-07,0.0008536875,3.2782555e-07
1.642108e-05,0.0,8.940697e-08,0.99998945,0.0,0.00026854873,0.0006313622,8.940697e-08,6.252527e-05,1.1920929e-07
9.089708e-06,0.0,3.6358833e-06,0.9999968,7.748604e-07,0.00017514825,0.00047826767,0.0,5.492568e-05,0.0
0.0006740689,0.0,3.5762787e-07,3.7372112e-05,3.874302e-07,0.0004939139,0.00479573,1.1026859e-06,0.99767554,0.00026100874
0.5112196,0.0,2.8014183e-06,1.7881393e-07,0.0,4.553795e-05,0.00017434359,0.7752752,0.00029069185,0.0033456087
0.985675,0.0,1.5467405e-05,1.4901161e-07,2.9802322e-08,0.00050508976,0.0020081997,0.00031360984,0.0002927482,0.004240364
0.90355074,0.0,9.23872e-07,2.9802322e-08,0.0,0.00010278821,0.00020992756,0.0010597408,0.02611354,0.00013127923
0.9360664,2.9802322e-08,2.0861626e-07,0.012874484,1.5199184e-06,0.0017429888,0.00070261955,1.4901161e-05,0.0015358627,0.0004606843
0.99516,0.0,5.6028366e-06,1.1920929e-07,0.0,0.00031670928,0.00034871697,0.00017872453,0.00014787912,0.0005567968
0.0012637377,0.0,1.6987324e-06,6.2286854e-06,0.99888146,5.9187412e-05,0.00068449974,2.0861626e-07,0.000338763,1.1146069e-05
0.99567145,0.0,1.9609928e-05,1.4901161e-07,2.9802322e-08,0.00040075183,0.0008017123,6.020069e-06,0.00041022897,1.7434359e-05
0.9977582,0.0,5.9604645e-08,1.7881393e-07,0.0,0.0006312132,0.00040960312,1.6093254e-06,0.00010436773,0.00034368038
8.3595514e-05,0.0,3.3318996e-05,0.00032103062,2.2113323e-05,2.9951334e-05,0.00085780025,0.00028583407,0.999459,1.937151e-06
0.99171925,0.0,3.0994415e-06,0.0,1.1920929e-07,0.00021103024,0.00057917833,0.00029149652,2.7805567e-05,0.00024360418
2.4735928e-06,0.0,0.00017929077,4.452467e-05,1.4901161e-06,0.84531355,0.0031071901,0.000110417604,0.9846108,9.030104e-06
0.0,2.9802322e-07,4.568696e-05,1.4424324e-05,4.351139e-06,0.00021615624,0.0021404922,3.2782555e-07,0.0010123551,0.9990888
2.771616e-06,8.940697e-08,3.2782555e-07,0.9999971,5.364418e-07,0.00081047416,0.0011122823,0.0,0.0034753382,2.9802322e-08
6.854534e-07,0.999682,0.000110417604,0.004458815,0.071466565,0.015894145,3.71933e-05,0.0,0.39618504,6.917119e-05
0.038545012,0.0,3.2275915e-05,1.4901161e-06,2.1874905e-05,0.0002015531,0.0042069554,3.811717e-05,0.9658849,0.00048431754
0.9629965,0.0,2.9802322e-07,5.066395e-07,0.0,0.00025728345,0.00039440393,3.9041042e-05,0.05458477,0.00052568316
1.8775463e-06,0.0,8.940697e-08,0.0,0.0,5.9604645e-08,0.000121325254,0.0,1.0281801e-05,0.9999112
0.59803176,0.0,1.9967556e-06,8.34465e-07,8.940697e-08,0.000116974115,0.00038960576,0.3503589,0.0011162162,0.009011805
2.3841858e-07,0.0007586479,0.8460169,0.00027149916,0.0019198656,0.9999999,0.0053431094,0.0004170835,0.070605665,3.9041042e-06
0.9841409,0.0,2.9802322e-08,5.9604645e-08,0.0,5.108118e-05,0.00011071563,1.7881393e-07,0.029750645,8.225441e-06
2.7120113e-05,2.8848648e-05,0.9000584,7.033348e-05,0.0012345016,0.00077587366,0.06614384,1.8060207e-05,0.99639404,2.208352e-05
0.9217547,0.0,7.7188015e-06,2.8312206e-06,1.4901161e-07,0.00014525652,0.0007812083,0.025344074,0.00055095553,0.0023537576
1.1920929e-07,0.00061258674,6.2584877e-07,0.999984,1.4603138e-06,0.014580995,0.40758154,1.1920929e-07,0.07401556,1.0102987e-05
2.336502e-05,5.9604645e-08,3.618002e-05,5.066395e-07,8.34465e-07,1.13248825e-05,0.00024566054,0.0027482808,0.0020267367,0.9742343
0.9951979,0.0,7.5399876e-06,2.3841858e-07,8.940697e-08,0.00036931038,0.00045260787,4.2527914e-05,0.0010219514,6.785989e-05
0.987557,0.0,7.748604e-07,1.4007092e-06,1.3113022e-06,0.0014027953,0.002470553,9.834766e-07,0.003484279,0.0007419288
3.388524e-05,0.0,3.1381845e-05,8.3088875e-05,0.00031775236,1.5109777e-05,0.0017626882,2.3543835e-06,0.999866,2.0772219e-05
0.012628138,0.0,9.23872e-07,5.185604e-06,6.467104e-06,0.0005303025,0.00059992075,3.2782555e-07,0.17319465,0.5833289
0.9900132,0.0,1.1622906e-06,3.695488e-06,0.0,0.0015646815,0.0006504953,1.40964985e-05,0.00029087067,0.00022599101
2.9802322e-07,0.9152013,0.0014282465,0.9963689,8.404255e-06,0.039637983,0.021557748,2.0861626e-07,0.15533239,0.00041657686
2.2053719e-06,7.1525574e-07,0.00027185678,1.463294e-05,5.066395e-07,0.99999905,0.0015672743,0.00226897,0.0017785132,2.9802322e-05
7.659197e-06,2.3543835e-06,0.03208384,0.9998911,0.00076526403,0.0007877648,0.0014291704,8.940697e-08,0.14888623,0.0004402101
0.9429517,0.0,5.0365925e-06,1.630187e-05,1.1920929e-07,0.0017660856,0.0016641021,1.2218952e-05,0.027811646,0.01304701
2.2351742e-05,0.0,2.0563602e-06,0.9999931,7.1525574e-07,0.00077325106,0.0019949079,4.172325e-07,0.0004402101,2.3841858e-07
0.9899012,0.0,1.1920929e-07,3.2782555e-07,0.0,0.00010508299,0.00016751885,0.0004235804,0.00032749772,0.00010341406
0.00012037158,2.9802322e-08,0.0010390878,0.9210831,0.9978955,0.00023531914,0.0015843511,1.5199184e-06,0.008298576,9.834766e-07
1.7881393e-07,0.99782825,2.6524067e-06,0.45293388,2.9802322e-08,0.0011017323,0.00033798814,0.0,0.9983371,5.7816505e-06
0.9954829,0.0,1.4901161e-07,3.5762787e-07,2.9802322e-08,0.0012794137,0.002704382,8.940697e-08,0.0005887747,0.00038647652
2.9802322e-07,3.835559e-05,0.97575307,3.144145e-05,5.2452087e-06,0.00011488795,0.0042681396,2.3841858e-06,0.9902642,6.109476e-06
0.9258256,1.4901161e-07,0.003337562,3.0398369e-06,2.413988e-06,0.0020210445,0.0022837818,2.6851892e-05,0.007455528,0.0053457916
4.8577785e-06,8.940697e-08,1.04904175e-05,6.0796738e-06,1.052022e-05,0.96199393,0.017414212,7.897615e-06,0.894835,8.457899e-05
4.6789646e-06,3.0189753e-05,0.010130882,0.00012946129,5.888939e-05,0.99999964,0.0044430494,1.66893e-05,0.03850007,7.599592e-06
5.1230192e-05,6.854534e-06,0.00046133995,0.99995345,2.2739172e-05,0.0019808412,0.06561574,5.0365925e-06,0.0009087324,3.6358833e-06
4.3809414e-06,0.0,3.5762787e-06,1.1920929e-07,1.7881393e-07,9.447336e-06,0.00012543797,0.99970734,0.0030790865,0.00022566319
0.9935062,0.0,8.940697e-08,2.9802322e-08,2.9802322e-08,0.00013253093,0.00029978156,2.682209e-07,0.0016218126,0.0008023083
0.9970916,0.0,8.940697e-08,8.940697e-08,5.9604645e-08,0.00021111965,0.00019210577,6.7055225e-06,0.00020262599,0.00022631884
0.9990686,0.0,2.9802322e-07,0.0,0.0,0.00014990568,0.00024223328,8.076429e-06,3.0994415e-05,0.00013917685
0.18884513,0.0,9.834766e-07,3.963709e-06,0.0,0.00046223402,0.00029811263,7.009506e-05,0.90259516,0.0011875033
0.40352836,5.811453e-06,2.0563602e-06,2.0295382e-05,3.427267e-06,0.0007003546,0.003420055,6.2584877e-07,0.2126346,0.022752345
9.199977e-05,0.0,0.0,0.0,0.0,5.9604645e-08,1.937151e-06,0.0,6.380677e-05,0.9999981
0.00074869394,9.864569e-06,0.00317657,6.854534e-05,1.8775463e-06,0.00039762259,0.0041372776,1.4603138e-06,0.33390963,0.28813112
8.672476e-06,0.9140555,0.008348018,0.0015532076,0.0019569993,0.0025728345,0.00035980344,4.273653e-05,0.0016286969,0.2249046
0.002569735,0.0,1.7881393e-06,3.6656857e-06,1.9669533e-06,0.0005452037,0.004603237,3.5762787e-06,0.99009234,0.0008533895
0.95303744,0.0,4.1097403e-05,2.026558e-06,1.6093254e-06,0.0022264123,0.0014044642,1.3023615e-05,0.022615194,0.013734281
6.943941e-06,0.99854434,9.7841024e-05,0.00017791986,0.00010228157,0.014105976,0.001010567,5.9604645e-08,0.06069669,0.00026881695
0.0013791025,0.0,1.6480684e-05,2.1755695e-06,1.1920929e-07,0.00013953447,0.0016100705,1.2516975e-06,0.9982604,0.0001924932
0.0016348958,5.185604e-06,1.7851591e-05,3.4093857e-05,0.00058859587,0.004727602,0.92204154,0.00010344386,0.013192087,0.014228582
0.9581259,0.0,1.4901161e-07,0.0,0.0,0.00013720989,0.00014469028,2.9802322e-08,0.020379692,0.0009598136
5.9604645e-08,0.99963355,7.131696e-05,0.4274378,0.0007311106,0.0063801706,7.0273876e-05,0.0,0.008374363,0.00012406707
8.34465e-07,2.7418137e-06,0.00022724271,0.99991196,0.01565212,0.00047305226,0.0026996434,3.8444996e-06,0.00025364757,2.8401613e-05
0.64666235,1.4901161e-07,4.2021275e-06,0.047779024,9.551644e-05,0.002638638,0.0021689832,1.8179417e-06,0.032544285,0.0044035316
0.5799601,2.682209e-07,1.4394522e-05,7.748604e-07,1.1920929e-07,0.0003015101,0.00061151385,4.887581e-06,0.7344152,0.0032253265
0.16445935,8.940697e-08,0.003041327,2.3812056e-05,6.1690807e-06,0.00072321296,0.004251927,4.7385693e-06,0.7975059,0.000114798546
1.1652708e-05,0.0,1.2814999e-06,7.867813e-06,0.0,4.7385693e-06,0.00013172626,5.0365925e-06,0.9999169,3.963709e-06
0.07506567,5.9604645e-08,4.351139e-06,1.4305115e-06,2.9802322e-07,0.00082063675,0.0030560493,3.2275915e-05,0.9308664,0.0013613105
0.9318753,0.0,1.4901161e-07,5.9604645e-08,0.0,0.0006620586,0.00087696314,0.00014910102,0.031933397,5.352497e-05
0.97348654,5.9604645e-08,2.0593405e-05,3.993511e-06,2.3841858e-07,0.0018045902,0.0012236238,9.387732e-06,0.011558324,0.007702768
0.99941814,0.0,1.4901161e-07,0.0,0.0,9.9897385e-05,0.00014972687,9.834766e-07,1.9282103e-05,2.387166e-05
1.3113022e-06,2.3841858e-07,8.940697e-08,0.9999939,1.7881393e-07,0.0038137436,0.01337114,1.7881393e-07,0.000113248825,2.9802322e-08
0.4458481,1.4901161e-07,2.4735928e-06,1.6093254e-06,0.0,0.0009497404,0.0006481111,1.7881393e-06,0.67859566,0.0037404895
0.96598935,0.0,2.4437904e-06,1.1920929e-07,0.0,5.7965517e-05,0.0003041029,0.00048932433,0.0010236204,0.0020756721
0.9986943,0.0,7.4505806e-07,2.9802322e-08,0.0,0.0002529323,0.0005722344,3.5762787e-06,1.758337e-05,0.000151366
0.007430911,2.0861626e-07,2.759695e-05,2.026558e-06,5.364418e-07,0.0005925,0.01582104,9.834766e-07,0.9664497,0.0050389767
0.9889749,0.0,1.2934208e-05,1.1622906e-06,5.9604645e-08,0.0025961697,0.0008109212,2.1994114e-05,0.0028873682,0.00058057904
0.57299715,0.0,3.6120415e-05,1.2516975e-06,3.5762787e-07,0.0012232363,0.0009252727,5.632639e-06,0.15767878,0.011370301
0.00070264935,0.8927006,0.001954317,4.887581e-05,5.301833e-05,0.0040557384,0.0016689897,4.708767e-06,0.005970627,0.026935637
0.00044214725,1.0728836e-06,8.940697e-08,9.4771385e-06,8.940697e-08,0.0013493598,0.99694824,2.4139881e-05,8.821487e-06,0.000248909
0.0034223795,3.5613775e-05,0.0018535852,0.0001167953,8.046627e-06,0.97905165,0.066084266,0.000119805336,0.21475321,0.0035553277
0.00019341707,0.0,3.606081e-06,3.1769276e-05,1.7881393e-07,0.0007157326,0.0023145974,2.3841858e-07,0.99717283,0.000570029
0.6824031,9.834766e-07,1.218915e-05,1.1920929e-07,1.1920929e-07,7.5280666e-05,0.00020805001,4.6491623e-06,3.257394e-05,0.6912466
1.4007092e-06,0.0,7.331371e-05,1.8507242e-05,0.059554487,1.6748905e-05,0.0012702942,0.8673728,0.3841874,0.000559181
3.516674e-06,0.97822917,0.0008209646,0.01944241,0.00034585595,0.009930819,0.020132244,0.0,0.1661998,0.0008239746
6.3180923e-06,2.9802322e-08,8.046627e-06,0.9999963,4.0233135e-06,0.00028958917,0.0008755326,0.0,0.0006494522,1.4901161e-07
0.9989729,0.0,5.9604645e-08,5.9604645e-08,0.0,0.00029227138,0.00027114153,9.119511e-06,1.0341406e-05,3.8325787e-05
0.012050778,8.940697e-08,0.00044551492,1.9967556e-06,3.1888485e-06,8.568168e-05,0.00018316507,0.9595833,4.068017e-05,0.0007736981
0.011956781,3.874302e-07,1.2695789e-05,2.026558e-05,2.9802322e-08,0.99522257,0.00047156215,7.748604e-07,0.010745347,5.8710575e-06
2.9802322e-07,0.0,0.0,5.9604645e-08,0.0,5.9604645e-08,1.3023615e-05,1.1920929e-07,9.834766e-07,0.9999999
8.34465e-07,0.9962736,0.00015851855,0.0005246103,1.7881393e-07,0.0011436939,0.0005316138,2.9802322e-08,0.999382,5.5730343e-06
0.0,6.964803e-05,0.00049701333,0.99998987,0.002423346,0.00031846762,0.052131772,1.9669533e-06,0.006595552,4.8279762e-05
0.0030121207,0.0,3.4719706e-05,8.583069e-06,8.6426735e-07,0.00010085106,0.00885582,8.586049e-05,0.9947612,3.4332275e-05
3.5464764e-06,7.82609e-05,0.0,0.00013941526,3.2782555e-07,0.00013592839,0.5514466,1.4901161e-07,0.987555,0.00076568127
0.96574765,0.0,9.2446804e-05,1.9967556e-06,1.180172e-05,0.0008049607,0.0011678934,6.2286854e-06,0.0020106733,0.007962137
0.13704288,0.0,1.8775463e-06,3.695488e-06,1.4901161e-07,0.00019088387,0.00041294098,0.00036892295,0.9582182,0.0003722906
0.00012117624,0.0,1.1920929e-06,5.1796436e-05,3.3915043e-05,0.0001861453,0.008414298,1.0460615e-05,0.99920267,6.16014e-05
0.0009191632,0.0023489296,0.00016465783,0.007439792,0.00016462803,0.080507785,0.8636943,1.4424324e-05,0.012503594,0.020200908
0.99432385,0.0,8.940697e-07,3.2186508e-06,8.940697e-08,0.0018278062,0.0012116134,1.2516975e-06,0.000436157,0.00075376034
0.99832225,0.0,8.940697e-08,2.9802322e-08,8.940697e-08,0.0002116561,0.00047954917,6.3478947e-06,7.095933e-05,0.00038805604
3.129244e-05,2.9802322e-08,4.6610832e-05,2.5957823e-05,0.00018522143,2.9087067e-05,0.0014178753,0.0013538003,0.022231877,0.9941182
0.6741631,1.013279e-06,9.000301e-06,1.8179417e-06,1.1920929e-07,0.024665356,0.14611468,4.2915344e-06,0.000106573105,0.00048348308
8.6039305e-05,0.9779011,0.022012323,0.00035604835,1.7404556e-05,0.005543411,0.028558552,2.2947788e-06,0.0147533715,0.0110064745
0.0,1.4901161e-07,5.751848e-06,0.9999984,0.9992856,0.00017729402,0.0007880628,5.364418e-07,0.00018244982,0.0
1.0877848e-05,2.682209e-07,0.0,8.672476e-06,2.3841858e-07,0.0014493465,0.9997306,0.0,2.9444695e-05,8.493662e-06
0.9872105,0.0,1.1920929e-07,0.0,0.0,9.089708e-06,0.00011789799,0.0018482208,4.10676e-05,0.0001155138
5.662441e-07,5.9604645e-08,0.99315876,2.8312206e-06,4.1872263e-05,3.71933e-05,0.0046919286,0.00056126714,0.99710244,3.2782555e-07
2.9802322e-08,0.00031504035,5.468726e-05,0.0017865896,2.8192997e-05,0.9999999,0.0044474304,2.2351742e-06,0.019560844,1.2844801e-05
0.9917847,0.0,2.6226044e-06,5.066395e-07,1.013279e-06,0.00023442507,0.0003245473,1.1026859e-06,0.004258126,0.0007416904
9.2208385e-05,0.00021407008,0.006909311,1.6391277e-05,1.129508e-05,0.9999492,0.03738743,0.00072163343,0.0012649298,0.00024360418
7.453561e-05,0.0,7.3611736e-06,1.5497208e-06,0.0,5.3167343e-05,0.0015493929,5.093217e-05,0.99961686,2.1368265e-05
5.9604645e-08,0.00019556284,0.00023198128,0.011944383,1.0609627e-05,0.30107588,0.9397493,3.5762787e-07,0.17853156,0.000616014
2.2679567e-05,0.9948418,0.0007264018,0.68984765,6.16312e-05,0.014407098,0.002083242,2.3841858e-07,0.5304011,0.0015775859
1.7285347e-06,8.225441e-06,5.2660704e-05,1.7791986e-05,3.3676624e-06,0.99999994,0.0020411015,1.7285347e-06,0.06277174,1.0430813e-06
0.07031751,8.136034e-06,0.00011873245,1.9401312e-05,4.4107437e-06,0.0001604855,0.0010581613,5.662441e-07,0.0009498894,0.9774605
0.73918474,8.940697e-08,2.3841858e-07,1.3113022e-06,7.748604e-07,0.0008164942,0.0016355813,1.4901161e-07,0.610538,0.0006454289
0.66376483,0.0,2.682209e-07,6.854534e-07,5.9604645e-08,8.696318e-05,0.00018936396,0.00037527084,0.6772638,0.00016376376
2.3841858e-07,0.00026139617,0.0008940697,0.00022900105,1.0937452e-05,0.9971609,0.01270467,3.5762787e-07,0.018458426,0.0047813654
1.2516975e-06,3.835559e-05,0.64990556,3.7550926e-05,2.9802322e-08,2.7447939e-05,0.0012570322,2.682209e-07,0.99962854,4.172325e-07
0.0006865561,2.3066998e-05,0.00893572,2.1487474e-05,0.015984297,0.0010745227,0.00083494186,7.1525574e-07,0.5381373,0.0039026141
3.8444996e-06,4.887581e-06,0.0011401176,0.00016722083,2.9087067e-05,0.99978936,0.0062540174,3.993511e-06,0.97412163,2.9712915e-05
0.9832109,0.0,1.4305115e-06,1.5199184e-06,4.172325e-07,0.000931859,0.0010330379,8.174777e-05,0.0029737353,0.0021594167
0.8938298,2.9802322e-08,6.508827e-05,8.6426735e-07,2.2649765e-06,0.0013027191,0.003357172,2.2649765e-06,0.011321306,0.009293735
0.00063186884,1.4722347e-05,0.001283884,4.196167e-05,7.4476004e-05,0.9990102,0.014182419,0.0032559633,0.0057430863,0.0037883222
1.3202429e-05,1.1920929e-07,0.99464154,2.1100044e-05,3.629923e-05,8.803606e-05,0.010369897,6.1541796e-05,0.9915818,3.784895e-06
3.3080578e-06,0.0011069477,0.6760008,4.5746565e-05,0.0002862215,0.48210835,0.3995793,5.969405e-05,0.93121934,0.000121712685
4.5895576e-06,0.00018799305,0.00010457635,0.9431575,0.008541882,0.0011222959,0.96656466,2.0861626e-07,0.28525364,0.00012168288
0.032617927,5.066395e-06,0.00032618642,0.8599125,0.9387822,0.013883382,0.008790523,2.2351742e-05,0.0019753277,0.00038298965
0.00068697333,0.0,0.9994693,2.05338e-05,5.6922436e-06,0.00016972423,0.004744947,0.0001360178,9.611249e-05,3.2544136e-05
0.105519414,0.0,1.4603138e-06,3.7252903e-06,3.5762787e-07,0.00025117397,0.00074371696,6.556511e-07,0.9578205,0.00023427606
1.0728836e-06,0.08356711,0.024380207,0.99993145,0.021156907,0.00220716,0.0008017719,3.2782555e-07,0.003357768,2.8908253e-06
0.9981098,0.0,6.854534e-07,2.9802322e-08,0.0,0.0005379915,0.00046736002,8.34465e-07,6.452203e-05,4.7802925e-05
0.040153623,2.0861626e-07,6.2584877e-07,9.834766e-07,3.874302e-07,0.0065558553,0.86634636,2.4437904e-06,0.0032649338,0.0012192726
3.0398369e-05,0.0,9.23872e-07,7.4476004e-05,0.003562063,1.0460615e-05,0.0010593534,3.5762787e-07,0.999379,1.5288591e-05
4.4703484e-06,0.0,8.6426735e-07,0.9999881,0.0,0.0001642406,0.0011765659,4.172325e-07,0.00013378263,1.3113022e-06
0.9912413,0.0,2.3841858e-07,3.5762787e-07,1.5974045e-05,0.00015866756,0.00042638183,1.6182661e-05,0.00014308095,6.696582e-05
0.17489085,2.9802322e-07,4.1127205e-06,0.77889824,8.34465e-07,0.0014801323,0.00036117435,7.414818e-05,0.00086417794,0.0016922057
0.0007365048,0.0,1.013279e-06,5.662441e-07,0.022452444,3.20971e-05,0.00042712688,9.834766e-07,0.9932496,4.7683716e-07
6.186962e-05,1.4007092e-06,0.00013172626,1.6391277e-06,3.606081e-06,0.99999905,0.0031103194,3.3080578e-06,0.03267896,8.431077e-05
0.99613595,0.0,5.9604645e-08,4.351139e-06,2.3841858e-07,0.00080260634,0.00075638294,3.5762787e-07,0.00010287762,0.0005687177
1.7285347e-06,0.0,8.046627e-05,0.99999714,2.9206276e-06,2.2739172e-05,0.00043582916,0.0,7.212162e-06,0.0
0.83764976,4.172325e-07,0.00015836954,2.9802322e-08,0.0,5.981326e-05,0.00040659308,9.050965e-05,0.00070881844,0.0748916
1.1533499e-05,0.0,2.682209e-07,1.7881393e-07,0.0,1.2844801e-05,0.0002641976,0.99997365,0.0008806586,2.2232533e-05
3.144145e-05,2.9802322e-07,1.8179417e-06,6.8843365e-06,8.46386e-06,0.006531745,0.9911319,9.4771385e-06,0.158532,0.0005776882
6.970763e-05,0.0,8.34465e-07,2.0861626e-07,1.7881393e-07,5.7816505e-06,0.00012931228,8.940697e-08,0.9999479,3.874302e-07
0.99886966,0.0,2.9802322e-08,2.9802322e-08,0.0,0.00016319752,0.00028380752,5.364418e-07,3.0845404e-05,1.4156103e-05
0.011522442,2.0861626e-07,0.0010676086,4.6998262e-05,2.1457672e-06,0.00083473325,0.0032471418,1.4841557e-05,0.90627146,0.101020485
0.9512282,0.0,7.748604e-07,0.0,0.0,0.5222431,0.00036028028,1.3411045e-06,7.3850155e-05,3.287196e-05
0.00023669004,0.0,5.364418e-07,0.9999671,5.9604645e-08,0.00036728382,0.00080415606,0.0,0.0003386736,1.4901161e-06
0.45445293,1.0728836e-06,0.000125736,6.2584877e-06,2.5957823e-05,0.0004645288,0.0017654896,2.4437904e-06,0.15727344,0.14458472
6.687641e-05,0.70066106,0.032057464,0.00028836727,6.684661e-05,0.009789944,0.0823738,0.00031527877,0.39366946,0.0123105645
0.99717736,0.0,4.172325e-07,1.1920929e-07,0.0,0.0002540052,0.0003091693,3.427267e-06,0.0003708005,0.0002156496
0.9747509,8.940697e-08,1.2397766e-05,1.9073486e-06,3.0398369e-06,0.00037938356,0.00068223476,0.0011110008,0.00026139617,0.0012007952
6.765127e-06,2.3007393e-05,0.00015214086,0.99998987,4.2915344e-06,0.05647987,0.015062511,5.364418e-07,0.0010222495,7.1525574e-07
0.9984876,0.0,5.9604645e-08,0.0,0.0,0.00010561943,7.969141e-05,2.0861626e-07,0.00041121244,5.0365925e-05
7.748604e-07,1.9937754e-05,0.00063315034,6.219745e-05,2.2917986e-05,0.99995446,0.014904529,4.0709972e-05,0.027574092,0.00048527122
3.2782555e-07,0.99984735,2.4169683e-05,0.00012812018,8.6426735e-07,0.00022125244,2.771616e-05,0.0,0.9972177,1.758337e-06
0.99757296,0.0,2.3841858e-07,1.1920929e-07,0.0,0.000561893,0.00042968988,4.7683716e-07,0.00061169267,0.000130862
0.9972795,0.0,1.1920929e-07,6.854534e-07,0.0,0.0007169843,0.00061389804,6.7949295e-06,0.00017011166,0.00018057227
0.07426265,2.3841858e-07,5.155802e-06,1.66893e-06,1.1920929e-06,0.003730625,0.44193164,4.7683716e-07,0.00011572242,0.00029593706
0.0043414533,0.0,4.7683716e-06,3.2782555e-07,0.0,6.556511e-06,0.00025236607,0.99813956,0.00018152595,5.555153e-05
2.8699636e-05,1.1205673e-05,1.9133091e-05,4.529953e-05,4.7683716e-07,0.9995979,0.052459687,6.8843365e-06,0.01659298,0.0014292002
5.930662e-06,0.95436096,0.00015723705,0.0004479587,1.3411045e-06,0.9563137,0.001981169,2.9802322e-08,0.37798807,4.7773123e-05
0.9981145,0.0,2.7120113e-06,0.0,2.9802322e-08,0.00054475665,0.00056529045,3.695488e-06,8.791685e-05,0.0003761351
3.1590462e-06,0.0,8.34465e-07,0.2866636,3.4868717e-06,4.5627356e-05,0.00085648894,1.4901161e-07,0.99988353,2.9802322e-08
0.9963383,0.0,2.0861626e-07,0.0,0.0,8.302927e-05,0.00020071864,1.591444e-05,0.00023522973,0.0004568696
5.066395e-07,0.0,5.6922436e-06,0.99999917,0.053819835,0.0010629594,0.00041615963,1.2814999e-06,0.00023025274,0.0
0.0027009845,7.987022e-06,9.089708e-06,8.404255e-06,2.9802322e-08,0.99928564,0.030369371,1.5199184e-06,0.0028377473,0.00012481213
0.97337735,0.0,1.7881393e-06,0.0,0.0,1.5944242e-05,0.00012281537,0.03322339,2.592802e-05,0.00030484796
7.2717667e-06,4.1484833e-05,3.695488e-06,4.7683716e-06,1.847744e-06,0.00027185678,0.93475914,5.364418e-07,0.95911753,0.0026049018
0.9097707,1.4901161e-07,5.930662e-06,2.6524067e-06,2.5689602e-05,0.0013005733,0.0014790297,1.6272068e-05,0.004522711,0.22882214
0.9476279,0.0,2.9802322e-07,0.0,4.4703484e-07,7.4207783e-06,0.00011846423,3.963709e-06,0.0013228357,0.0011140704
0.9959878,0.0,2.9802322e-07,0.0,0.0,3.3944845e-05,9.0777874e-05,0.00015994906,5.0902367e-05,2.2739172e-05
0.024737686,0.0,8.6426735e-07,4.6789646e-06,2.9802322e-08,0.0002552867,0.00033935905,3.2782555e-06,0.9919154,6.4879656e-05
0.06220904,5.9604645e-08,2.1010637e-05,3.0398369e-06,1.3411045e-06,0.0006417632,0.0016721189,2.9802322e-06,0.9162084,0.0032924414
0.002488315,6.556511e-07,0.00011473894,2.6911497e-05,1.3053417e-05,0.00014150143,0.0027723014,4.6789646e-06,0.08192283,0.9216635
0.43729675,0.0,9.536743e-07,9.23872e-07,2.9802322e-08,0.0019607246,0.0038155317,3.0398369e-06,0.6056975,0.000954926
4.172325e-07,0.0,3.33786e-05,0.99999845,5.9604645e-08,8.165836e-05,0.0033591092,4.172325e-07,0.0012790263,1.2814999e-06
0.00028577447,1.1920929e-07,1.1920929e-05,8.940697e-07,4.172325e-07,0.00056937337,0.0137348175,9.176135e-05,0.97204375,0.0010225177
2.0861626e-07,6.2584877e-07,0.0001975298,0.999999,8.493662e-06,0.00016069412,0.004348874,0.0,0.031134695,0.0
8.046627e-07,0.0,1.7881393e-07,0.99999946,1.7881393e-07,0.00021877885,0.00041264296,5.9604645e-08,3.3169985e-05,0.0
0.99134994,0.0,1.2516975e-06,5.9604645e-08,0.0,0.00014218688,0.00019481778,0.0004606247,0.00026124716,0.00017568469
0.0070084333,0.0,6.7949295e-06,2.115965e-06,0.0057234466,0.0001705885,0.00018319488,9.6559525e-05,0.9749415,1.2487173e-05
1.4901161e-07,1.2725592e-05,7.876754e-05,0.9043915,0.99839616,0.0023226738,0.82820815,1.4901161e-06,0.007548094,7.480383e-06
0.9986457,0.0,1.4901161e-07,8.940697e-08,0.0,0.0005992949,0.0003734529,1.4483929e-05,2.4706125e-05,3.7401915e-05
5.465746e-05,5.9604645e-08,7.748604e-07,3.3676624e-05,4.142523e-06,5.760789e-05,0.001218766,4.172325e-07,0.99900115,0.00041258335
0.00017303228,0.0,1.898408e-05,0.0020035803,2.2649765e-06,9.083748e-05,0.0011035502,7.1525574e-07,0.9993964,2.3841858e-06
6.1035156e-05,0.0,2.3841858e-06,8.186698e-05,6.854534e-07,0.00014305115,0.0016227067,7.754564e-05,0.9998443,2.1278858e-05
7.158518e-05,0.9979353,0.0006004274,0.0002810955,3.4719706e-05,0.002477765,0.003029555,1.7881393e-07,0.70738596,0.0016802251
1.707673e-05,8.940697e-06,1.6897917e-05,0.99982417,0.000805974,0.02064091,0.0065595508,1.1920929e-06,0.00024271011,2.8312206e-06
1.4603138e-06,2.2619963e-05,0.9903674,9.089708e-06,1.3649464e-05,0.9999506,0.01044333,2.3573637e-05,0.008738935,4.172325e-07
0.18960509,2.0861626e-07,0.0005554259,5.066395e-07,0.0,0.69902074,0.0018311143,0.0005453527,0.00027376413,0.00023436546
6.854534e-07,2.720952e-05,0.024805397,2.0503998e-05,8.136034e-06,0.99999976,0.0018885732,2.8312206e-06,0.014879733,7.5399876e-06
0.98611885,0.0,1.92523e-05,1.4901161e-07,0.0,0.0004093945,0.0004425645,0.00024193525,0.00047931075,0.00043416023
5.2124262e-05,0.0,5.9604645e-08,8.285046e-06,0.0,4.8190355e-05,0.00027635694,7.203221e-05,0.99982727,3.4719706e-05
0.0040569007,0.0,2.1874905e-05,1.4901161e-07,0.0,0.0001296103,0.00077590346,1.6987324e-06,0.9978684,0.00014221668
0.00093376637,0.0,1.12354755e-05,1.1920929e-07,2.9802322e-08,1.8179417e-05,0.0010397732,2.0682812e-05,0.99023914,0.0010714829
0.76600915,0.0,5.364418e-07,1.013279e-06,0.0,0.0004246831,0.0003155768,2.5689602e-05,0.6691397,0.00046104193
8.961558e-05,4.172325e-07,2.8640032e-05,0.00016918778,1.1920929e-07,0.00010237098,0.0030894876,2.9802322e-08,0.999816,6.198883e-06
0.00048953295,0.8735904,0.023608923,0.0012360215,0.0011126101,0.010733306,0.025366783,4.7385693e-06,0.060135663,0.25670817
5.9604645e-07,4.7683716e-07,0.0017504692,0.99998903,0.0016251802,0.00016504526,0.0013695061,0.0,0.04744914,0.0
0.9971833,0.0,3.5762787e-07,0.0,0.0,0.0006915629,0.0006747544,1.013279e-06,0.0021938384,2.8640032e-05
0.00060507655,0.0,1.4007092e-06,7.659197e-06,0.0,8.958578e-05,0.0002773404,3.120303e-05,0.9995102,3.287196e-05
0.09576407,0.0,3.3676624e-06,8.583069e-06,5.0991774e-05,0.00078606606,0.0026601255,1.12354755e-05,0.94898117,4.929304e-05
1.758337e-06,0.001747489,0.008511931,0.0029636323,8.404255e-06,0.006966263,0.053483993,2.9206276e-06,0.9982655,0.00013998151
0.04976356,0.0005903244,0.028796017,1.4692545e-05,6.556511e-07,0.004594326,0.47621858,0.0010451674,0.0010755956,0.062100768
0.9740157,2.9802322e-08,2.6226044e-06,9.834766e-07,2.0861626e-07,0.0010053813,0.001375556,7.748604e-07,0.0031063557,0.055819422
0.99712163,0.0,8.940697e-08,1.4901161e-07,1.1920929e-07,0.00071537495,0.00023815036,1.3113022e-06,8.457899e-05,0.000469625
0.9848654,0.0,4.4703484e-07,4.172325e-07,5.9604645e-08,0.0006862283,0.0010523796,4.10676e-05,0.0008328855,0.0041931868
0.985946,0.0,9.23872e-07,0.0,0.0,2.7030706e-05,0.00019612908,0.00032758713,0.00023588538,0.000310421
1.3738871e-05,0.0076149106,0.9695827,1.7166138e-05,2.7000904e-05,0.00667876,0.09529385,0.00024834275,0.0018770397,0.0015228391
0.0029597878,2.9802322e-08,0.054705977,3.954768e-05,1.2516975e-06,0.0003040731,0.00266096,0.0012121797,0.9921868,5.5491924e-05
4.4047832e-05,0.13976595,0.021670192,0.026040792,5.865097e-05,0.011589438,0.009776711,2.8342009e-05,0.13996616,0.6335493
0.98090726,0.0,5.9604645e-08,4.7683716e-07,8.940697e-08,0.0001924038,0.00036609173,2.0861626e-07,0.010615259,0.00021034479
0.9494911,0.0,8.940697e-08,2.9802322e-07,5.9604645e-08,0.00044047832,0.0003221035,1.7881393e-07,0.038249105,0.0028412938
0.0,0.001445651,0.07991278,0.9999997,0.01905498,0.0012657344,0.038891643,0.0,0.0010351241,8.940697e-08
6.7949295e-06,0.99902344,0.0007533133,0.00046545267,2.8938055e-05,0.01269114,0.0010415912,5.9604645e-07,0.387573,0.00029549003
9.638071e-05,0.0,4.827976e-06,5.930662e-06,3.5762787e-07,3.0964613e-05,0.0007954538,8.940697e-08,0.99983525,3.0994415e-06
0.9974304,0.0,4.172325e-07,8.940697e-08,2.9802322e-08,0.0006375909,0.0012097955,1.6987324e-06,0.0002862215,0.00025945902
2.8461218e-05,1.4901161e-07,1.7434359e-05,0.002951771,1.963973e-05,0.00025254488,0.0076734424,5.0365925e-06,0.99954593,3.0517578e-05
3.1352043e-05,0.0,5.877018e-05,6.5267086e-06,0.015475631,3.6269426e-05,0.0020825267,0.0005735159,0.9993475,2.2351742e-06
0.9940143,0.0,2.9802322e-07,0.0,0.0,5.2034855e-05,0.00014597178,5.030632e-05,0.0008611679,5.570054e-05
4.172325e-07,3.0696392e-06,0.00085142255,3.1143427e-05,6.5118074e-05,0.99985343,0.010746688,2.592802e-06,0.8216689,0.00016510487
1.7881393e-07,0.9555286,0.05414903,0.013034165,0.00017252564,0.9999781,0.00083759427,3.993511e-06,0.23551974,2.9206276e-06
0.0035966337,0.0,5.6922436e-06,0.9839722,2.3543835e-06,0.00053200126,0.00054967403,4.568696e-05,0.00016570091,4.720688e-05
0.9919074,0.0,4.172325e-07,8.940697e-08,0.0,4.1663647e-05,0.00028166175,3.9041042e-05,0.00069472194,4.8041344e-05
0.0020056665,0.0,4.6044588e-05,0.0,0.0,2.2351742e-06,0.00062319636,0.996742,0.0010299087,0.0017561018
0.012475431,2.7686357e-05,0.76667446,1.3530254e-05,2.3841858e-06,0.0004669428,0.0027837455,0.001369983,0.43815982,0.00080356
0.888018,0.0,7.4505806e-07,0.0,0.0,4.9471855e-06,2.1964312e-05,0.0800859,3.245473e-05,0.0016893446
0.99797034,0.0,1.1920929e-07,1.1920929e-07,2.9802322e-08,0.00040745735,0.00035107136,1.5497208e-06,8.1539154e-05,0.00031408668
2.9802322e-08,0.0037178397,0.0009816587,0.9996197,0.00017663836,0.002300799,0.5775478,1.1920929e-07,0.8510944,2.2947788e-05
0.99423015,0.0,4.10676e-05,1.4901161e-07,0.0,0.0002220571,0.0003710389,2.95043e-06,1.552701e-05,3.2514334e-05
0.13712466,0.0,0.0005450547,3.0696392e-06,3.9041042e-06,0.00068953633,0.0013691187,0.00038811564,0.9290869,0.005261928
0.00030854344,1.3411045e-06,4.7683716e-07,2.0563602e-06,1.6093254e-06,0.0011021197,0.9490544,8.34465e-07,0.063979894,0.0131319165
0.0,5.9604645e-07,2.3424625e-05,0.9999993,0.00013023615,0.00053679943,0.00699389,2.3841858e-07,0.000638783,1.1622906e-06
0.99730015,0.0,4.7683716e-07,2.9802322e-08,0.0,0.00028136373,0.00017625093,1.1920929e-06,0.00010088086,9.509921e-05
0.99947107,0.0,0.0,0.0,0.0,0.00013417006,0.00023284554,2.9802322e-07,3.966689e-05,1.719594e-05
9.179115e-06,9.49204e-05,0.000706166,0.00031656027,0.00034454465,0.9996024,0.01170671,9.23872e-06,0.0051403046,0.0018623769
9.357929e-06,0.0,1.770258e-05,9.23872e-07,8.940697e-08,4.273653e-05,0.0031580925,0.00074002147,0.9987434,0.0008007884
4.7683716e-07,1.1920929e-07,1.0728836e-06,1.7434359e-05,2.9802322e-08,8.457899e-05,0.6419882,3.0398369e-06,0.9998837,1.49309635e-05
0.00010666251,0.0,2.682209e-07,1.9162893e-05,2.3841858e-07,0.00011238456,0.00035524368,3.9339066e-06,0.9997651,1.5884638e-05
5.3048134e-06,3.784895e-06,0.9905567,1.0371208e-05,0.00043815374,0.002392441,0.0644058,7.4356794e-05,0.47059104,0.00021451712
0.99737763,0.0,1.7881393e-07,5.9604645e-08,0.0,0.00015759468,0.00019177794,1.4007092e-06,8.3863735e-05,0.0004005432
9.199977e-05,0.0,0.0,0.0,0.0,5.9604645e-08,1.937151e-06,0.0,6.380677e-05,0.9999981
0.0017863512,0.0,0.0019435883,1.8209219e-05,0.9985331,3.6805868e-05,0.0004670918,1.79708e-05,5.337596e-05,0.00012212992
0.98377323,1.1920929e-07,6.7949295e-06,2.9802322e-07,2.9802322e-08,0.001714021,0.0008433461,2.5331974e-06,0.0016324222,0.0054740906
0.31492022,2.3275614e-05,2.9355288e-05,2.0623207e-05,7.0124865e-05,0.0024287999,0.007429987,4.2527914e-05,0.017630756,0.37000185
0.9967241,0.0,2.3841858e-07,0.0,0.0,0.00027555227,0.00034832954,3.2782555e-07,0.0014358759,6.1154366e-05
6.2584877e-07,0.0,4.0858984e-05,5.9604645e-08,0.0,4.172325e-07,0.00018441677,1.1920929e-07,2.9802322e-06,0.99999386
0.0033878386,0.0,5.5134296e-05,1.2814999e-05,4.172325e-07,0.00013563037,0.0020069778,0.0013543963,0.98109865,0.0010527968
0.12690964,0.0,1.5884638e-05,0.0012128949,1.2218952e-06,0.006067544,0.0012182891,2.6911497e-05,0.8358903,0.018647075
0.9978756,0.0,5.9604645e-08,8.940697e-08,0.0,0.0002155602,0.00028038025,1.7881393e-07,0.00017100573,6.5773726e-05
9.030104e-06,1.3113022e-06,4.172325e-07,1.758337e-06,1.6391277e-06,0.00477916,0.99938935,2.5331974e-06,0.00034579635,0.0004969239
9.536743e-07,3.8146973e-06,0.0009009242,3.08156e-05,0.00011625886,0.9999998,0.0032945871,1.4901161e-06,0.06369853,1.3589859e-05
1.0281801e-05,0.0,5.7816505e-06,0.9999851,2.682209e-07,0.00025513768,0.0028002858,7.4505806e-07,0.00037148595,1.0371208e-05
0.9951983,0.0,7.2717667e-06,5.662441e-07,3.2782555e-07,0.001729548,0.0012889802,2.3812056e-05,5.057454e-05,0.00030836463
1.32620335e-05,1.1920929e-07,7.1525574e-07,0.9999929,3.2782555e-07,0.00034856796,0.0005052984,2.9802322e-08,0.00028428435,1.1026859e-06
8.34465e-07,0.9717753,0.0015479624,0.9994469,0.00064459443,0.005047977,0.00051411986,2.9802322e-08,0.16306832,3.2275915e-05
0.99314725,0.0,1.0728836e-06,2.9802322e-08,5.9604645e-08,0.000101327896,0.00023338199,0.00010481477,6.812811e-05,0.002119869
2.3305416e-05,6.8843365e-06,0.0028779507,0.0039253533,0.77748203,0.99995977,0.015144557,0.0001848638,0.004688859,3.838539e-05
4.261732e-06,0.0,4.7683716e-07,0.99999845,0.0,0.00018247962,0.00068348646,2.9802322e-08,2.6285648e-05,2.9802322e-08
3.3795834e-05,0.0,5.9604645e-08,4.440546e-06,0.0,4.553795e-05,0.0003040731,1.4901161e-06,0.9998119,6.1690807e-06
0.010629982,0.0,6.377697e-06,0.96802974,9.23872e-07,0.001024276,0.00076180696,0.00010511279,0.011259586,4.3958426e-05
1.7374754e-05,2.4437904e-06,0.00010588765,0.0004885495,7.984042e-05,3.4600496e-05,0.0010373592,8.940697e-08,0.004927516,0.846652
3.1292439e-06,0.0,8.940697e-08,0.9999827,0.0,6.613135e-05,0.000700593,1.4901161e-06,3.9607286e-05,5.066395e-07
0.00051006675,4.300475e-05,1.4901161e-06,1.4990568e-05,7.2717667e-06,0.008747697,0.8389094,0.00015828013,0.37717783,0.008650959
0.98931986,0.0,1.0728836e-06,1.1920929e-06,5.9604645e-08,0.0006303191,0.0007556081,3.3080578e-06,0.00047421455,0.0016557574
0.9991789,0.0,2.682209e-07,2.9802322e-08,0.0,0.00011143088,0.00015625358,3.963709e-06,3.1501055e-05,4.5329332e-05
0.26009482,0.0,4.258752e-05,2.783537e-05,7.1525574e-07,0.00019070506,0.0013764799,0.21044609,0.020974636,0.00089865923
0.005614221,3.6656857e-06,2.1010637e-05,2.1368265e-05,5.9604645e-08,0.0007456243,0.9268031,0.09542674,3.07858e-05,0.00014427304
1.1920929e-07,2.9802322e-08,1.6391277e-06,0.9999262,2.8014183e-06,0.00014314055,0.0012790263,2.0861626e-07,0.9935283,2.9802322e-08
2.336502e-05,0.005854428,0.024469256,3.7759542e-05,5.4568052e-05,0.9971941,0.03478983,4.5001507e-06,0.12920377,0.0016286075
0.032393128,8.940697e-08,3.7550926e-06,4.2259693e-05,3.8146973e-06,0.0012650788,0.00432387,3.516674e-06,0.9313282,0.007484466
1.6093254e-06,0.0018876791,0.6577867,0.0026053786,5.1498413e-05,0.00043866038,0.4714514,2.1457672e-06,0.99674964,2.7626753e-05
0.36528867,0.0,7.4505806e-07,5.9604645e-08,0.0,5.3346157e-06,4.6521425e-05,0.744656,0.00038954616,1.9699335e-05
0.0028553307,1.1622906e-06,9.101629e-05,1.475215e-05,7.4505806e-07,6.774068e-05,0.0016284883,2.592802e-06,0.9914925,0.0003682673
0.97813946,0.0,0.00027048588,1.0728836e-06,5.9604645e-08,0.00014650822,0.0006801784,0.008283794,0.00010231137,0.0017229319
0.9841763,0.0,7.1525574e-07,3.5762787e-07,0.0,0.0007685423,0.0004131794,6.2286854e-06,0.019178241,0.0012114048
0.0014664233,4.172325e-07,0.9991179,2.7269125e-05,2.0563602e-06,0.00037109852,0.0053096116,1.3411045e-05,0.009749919,1.2308359e-05
0.9931272,0.0,3.2484531e-06,5.9604645e-08,8.940697e-08,0.0001308322,0.0004145503,9.563565e-05,0.00049200654,0.001145035
1.0788441e-05,8.940697e-08,1.013279e-06,8.568168e-05,1.7881393e-07,6.696582e-05,0.0012124777,6.854534e-07,0.99855614,0.0005069971
0.43645707,0.0,2.4139881e-05,1.4424324e-05,5.066395e-07,0.001170218,0.000729084,1.8388033e-05,0.6207823,0.006654352
0.9620795,8.940697e-08,2.6583672e-05,8.285046e-06,6.7561865e-05,0.001968652,0.001701802,3.7640333e-05,0.0019741952,0.014713198
0.004432231,0.0,1.6391277e-06,3.993511e-06,4.2021275e-06,0.00036412477,0.0022592545,1.4901161e-07,0.9661709,0.0042076707
0.02180165,0.0,9.834766e-07,1.552701e-05,2.682209e-07,0.00046357512,0.00068351626,5.6028366e-06,0.9884963,0.0026903152
3.0994415e-06,4.7683716e-07,0.9996302,0.00058329105,7.4863434e-05,0.00042709708,0.015157551,9.1820955e-05,0.0013321638,0.00067827106
5.9247017e-05,0.0,8.940697e-08,5.9604645e-08,8.34465e-06,9.229779e-05,0.00063210726,2.0861626e-06,0.9988264,3.4868717e-06
7.301569e-06,0.0001489222,0.0012878478,3.9964914e-05,0.19885108,0.0014741123,0.067144096,0.00020217896,0.0057325065,0.5415113
0.47771537,2.9802322e-08,2.0861626e-07,1.3113022e-06,0.0,0.00031468272,0.00022831559,1.1920929e-07,0.85041463,0.0003235638
9.307265e-05,0.0,5.662441e-07,7.748604e-07,5.9604645e-08,1.92523e-05,0.0012649894,2.3841858e-07,0.9999155,1.8179417e-06
0.9963635,0.0,7.748604e-07,2.9802322e-08,5.9604645e-08,0.0004428029,0.0003260076,1.2814999e-06,0.00033313036,0.0010558665
0.0018169284,0.0,1.013279e-06,1.2010336e-05,2.1755695e-06,0.00010877848,0.00081697106,4.6491623e-06,0.9969735,0.0005892515
2.682209e-07,9.983778e-06,0.031337082,1.1444092e-05,2.0831823e-05,0.99997675,0.0028676689,1.4275312e-05,0.971099,4.082918e-06
0.26673213,8.940697e-08,1.2665987e-05,8.46386e-06,0.0,0.0026377738,0.0023441613,0.0002836287,0.7389264,0.008379698
0.9514957,0.0,1.7881393e-07,8.34465e-07,0.0,0.0003067851,0.00016906857,4.053116e-05,0.080459625,0.0009277761
0.989427,0.0,5.662441e-07,2.7120113e-06,5.9604645e-08,0.001486063,0.0005239248,2.9802322e-06,0.00072294474,0.0022634566
0.00022360682,0.0,2.413988e-06,2.4437904e-06,8.940697e-08,5.465746e-05,0.00039750338,2.6524067e-06,0.99947035,0.00012493134
1.7642975e-05,8.940697e-08,0.9999734,2.297759e-05,4.172325e-06,0.000116080046,0.0018405914,0.000104129314,0.0011517704,1.2516975e-06
0.99336076,0.0,4.172325e-07,8.940697e-07,0.0,0.00055375695,0.00040504336,1.2218952e-06,0.00025731325,0.00013899803
0.9583075,0.0,5.3077936e-05,1.5795231e-06,5.662441e-07,0.0020703971,0.0010953546,2.1219254e-05,0.001535505,0.009199023
0.98082256,0.0,1.4901161e-07,2.9802322e-08,0.0,2.5242567e-05,0.0001180172,0.004519284,4.7445297e-05,0.00025209785
0.0,2.9832125e-05,0.95184696,0.000121444464,8.764863e-05,0.9938631,0.009116471,6.3180923e-06,0.9910684,1.0728836e-06
0.9806373,0.0,9.655952e-06,3.2782555e-07,1.1920929e-06,0.00013121963,0.00029829144,0.00016453862,0.0008434653,0.00015425682
6.854534e-06,0.91622305,9.000301e-05,0.0007506311,1.0728836e-06,0.0028776228,0.016511053,6.854534e-07,0.98288167,0.0018793344
2.1487474e-05,0.99691665,0.001419872,0.0001680553,0.00019946694,0.7247955,0.00042256713,1.013279e-06,0.17159826,0.0013168454
0.055076808,0.0,1.1920929e-07,4.440546e-06,0.0,0.00063204765,0.0009817183,1.937151e-06,0.9435688,8.523464e-06
0.0,0.0,0.00011718273,0.99999964,0.5404789,0.00040003657,0.0014511645,1.4901161e-07,0.00019919872,0.0
0.98510265,0.0,1.2874603e-05,7.748604e-07,3.5762787e-07,0.00034737587,0.0011541247,6.2584877e-06,0.041089088,1.4394522e-05
0.0005811751,0.0,4.6789646e-06,5.364418e-07,5.9604645e-08,0.0001566112,0.001391232,7.1823597e-06,0.99865174,0.00014978647
0.0002952218,2.5093555e-05,2.2649765e-06,3.5762787e-07,2.9802322e-07,0.00075256824,0.99735904,5.4240227e-06,0.0014247596,0.00038474798
3.0100346e-06,1.1920929e-07,4.172325e-07,0.9999995,2.9802322e-08,0.00035452843,0.00068694353,8.940697e-08,4.5269728e-05,5.9604645e-08
3.2365322e-05,3.3676624e-06,2.9802322e-08,2.0861626e-07,1.1920929e-07,0.0010235012,0.99793494,6.854534e-06,6.979704e-05,0.002517134
0.8431924,0.0,4.7683716e-07,1.0728836e-06,1.9073486e-06,0.00057429075,0.0012883246,8.940697e-06,0.2042822,0.0012442172
0.92999005,0.0,0.0011907816,3.2782555e-07,0.0,0.000116467476,0.00080153346,0.0065146685,9.915233e-05,5.725026e-05
4.172325e-07,6.79791e-05,0.0036619306,0.0014771819,0.00034427643,0.9999989,0.00844866,7.092953e-05,0.004942298,1.2367964e-05
1.642108e-05,0.0,4.7683716e-07,3.4868717e-06,0.0,1.8537045e-05,0.0011799932,2.3841858e-07,0.9999614,2.771616e-06
8.34465e-07,0.00011765957,0.018158585,0.9952692,5.0753355e-05,0.00065508485,0.0052376688,5.9604645e-08,0.97633743,8.6426735e-07
0.4795995,0.0,7.748604e-07,1.9967556e-06,3.695488e-06,0.00021094084,0.00068202615,3.2782555e-07,0.43778032,0.023757964
2.5331974e-06,0.010075301,5.4240227e-05,0.00058820844,5.364418e-07,0.0021778643,0.5470556,0.0,0.98393285,0.0015926957
0.9955127,0.0,2.115965e-06,2.3841858e-07,0.0,0.0011209548,0.0014391541,2.2739172e-05,6.619096e-05,0.00030839443
0.9940884,0.0,1.5497208e-06,8.940697e-08,0.0,0.00014287233,0.0002413094,0.0006671846,5.8591366e-05,0.0004940033
4.5865774e-05,8.940697e-08,5.364418e-07,0.99998796,1.1920929e-07,0.00054991245,0.00090900064,2.0861626e-07,0.00015184283,3.874302e-07
0.99893713,0.0,2.3841858e-07,8.940697e-08,0.0,0.00077447295,0.00054371357,3.3974648e-06,1.5944242e-05,1.603365e-05
0.03533727,2.026558e-05,0.00039824843,1.5765429e-05,7.390976e-06,0.0012438893,0.0072366595,2.2947788e-06,0.8742707,0.058439016
0.00031137466,0.0,1.6987324e-06,1.0818243e-05,1.6987324e-06,7.6293945e-06,8.574128e-05,0.9959494,0.03535235,0.0036981702
2.336502e-05,0.0,4.7683716e-07,3.4868717e-06,0.0,2.1547079e-05,0.0009522438,5.942583e-05,0.9999449,4.3809414e-06
1.4126301e-05,0.0,2.682209e-07,0.999995,9.23872e-07,0.0002643764,0.0005605817,1.1920929e-07,0.00029063225,0.0
1.7881393e-07,0.981434,0.0025158823,5.3316355e-05,0.75531274,0.002427876,0.0014810264,4.4703484e-07,0.010186613,0.0002707243
2.2113323e-05,6.854534e-07,0.00016835332,1.552701e-05,7.212162e-06,0.000115811825,0.0007430315,1.50203705e-05,0.0007753372,0.98939455
5.751848e-06,0.0,2.0861626e-07,0.99999833,7.748604e-07,0.0004079342,0.0006276965,5.9604645e-08,6.16312e-05,1.7881393e-07
6.8843365e-06,0.0,2.3841858e-06,0.99999785,1.2516975e-05,0.00036787987,0.0017901361,0.0,0.005215436,2.9802322e-08
0.0006175041,0.0,1.1920929e-07,2.0802021e-05,1.7881393e-07,0.00014269352,0.0009505451,2.2262335e-05,0.9989221,4.7773123e-05
0.5280993,0.0,2.3841858e-07,1.4901161e-06,7.748604e-07,0.00041615963,0.0013002455,1.552701e-05,0.18044958,0.031494826
0.998346,0.0,5.9604645e-08,0.0,0.0,4.5627356e-05,7.331371e-05,2.2649765e-05,3.194809e-05,0.00010037422
1.4483929e-05,2.1755695e-05,0.0001616478,0.00050628185,8.702278e-05,0.0045098066,0.96285754,0.0022637844,0.00012814999,0.009821624
0.01610148,0.0,1.758337e-06,4.5835972e-05,8.195639e-06,0.00044369698,0.0012092292,3.8146973e-06,0.97680104,0.0005325675
0.99794674,0.0,8.940697e-08,0.0,0.0,7.173419e-05,8.4251165e-05,2.3841858e-07,6.368756e-05,0.0016805828
0.9936998,0.0,8.046627e-07,5.662441e-07,4.887581e-06,0.0002937317,0.00063991547,1.6093254e-06,0.0006778538,0.00042545795
0.00014945865,8.940697e-08,0.00031492114,1.7285347e-06,3.2782555e-07,5.298853e-05,0.0010178983,0.9933282,0.008209169,0.0023888648
0.98258615,0.0,0.00020650029,1.4901161e-07,0.0,0.0021888316,0.0008560121,4.7445297e-05,0.0024930835,0.00014829636
0.62916064,0.0,9.834766e-06,7.4505806e-07,0.0,2.464652e-05,7.0512295e-05,0.4833081,0.00013428926,0.00042125583
6.854534e-07,2.9802322e-08,0.9986467,5.155802e-06,1.7285347e-06,2.9951334e-05,0.00225389,2.9802322e-06,0.99664295,1.7881393e-07
1.7225742e-05,2.9802322e-08,0.9998237,1.2457371e-05,6.350875e-05,0.00012204051,0.0018366873,0.00015458465,0.32783782,1.2218952e-06
0.9892842,2.9802322e-08,0.0016853213,1.2814999e-06,5.364418e-07,0.00051400065,0.0006233752,4.553795e-05,4.082918e-05,0.0006827414
8.940697e-08,9.23872e-07,0.00023332238,0.0001423657,2.7805567e-05,1.0,0.0008880198,6.765127e-06,0.0019593835,6.556511e-07
0.10313842,0.0,7.003546e-05,1.4901161e-07,0.0,2.8908253e-06,0.0004886687,0.0077629387,2.655387e-05,0.47401503
0.98287404,0.0,1.5586615e-05,1.9967556e-06,5.9604645e-08,0.0017473698,0.0010448694,0.00027820468,0.00047162175,0.0071656406
0.00013884902,0.000523597,0.94467586,0.0012578964,0.00010174513,0.0028795898,0.020707488,8.6426735e-07,0.12762442,0.00481984
7.4505806e-06,2.682209e-07,0.99328583,0.013370633,2.3007393e-05,0.0006736815,0.0105956495,0.43691996,0.0001784563,9.596348e-06
0.0,0.0074943304,5.00679e-06,0.99999046,0.13507602,0.07653248,0.45562255,0.0,0.03761044,5.2452087e-06
9.834766e-07,3.5762787e-07,0.00048425794,0.99997944,0.006469041,0.0008235574,0.0012470186,8.940697e-08,0.041382343,0.000310719
0.00017395616,0.0002591908,2.9802322e-08,0.000109285116,0.0,5.6922436e-06,0.00014543533,0.0,0.008227617,0.9344094
1.1652708e-05,0.00037765503,0.6132812,0.99990314,1.8775463e-06,0.00037631392,0.0034167469,9.834766e-07,0.00030314922,2.3007393e-05
0.99745536,0.0,1.2814999e-06,1.7285347e-06,5.9604645e-08,0.0008353889,0.0018976927,2.8312206e-06,0.00015851855,0.00020670891
0.12373093,0.0,1.6987324e-06,1.2814999e-06,0.34277502,0.00018900633,0.0004069507,6.2584877e-07,0.6328591,3.7431717e-05
5.662441e-07,0.08979231,6.663799e-05,8.055568e-05,3.5762787e-07,0.0006676018,0.044492483,1.4901161e-07,0.9995645,5.6624413e-05
9.834766e-06,0.0,0.0,3.5464764e-06,2.9802322e-08,5.4746866e-05,0.0004119873,1.6391277e-06,0.9998417,6.8724155e-05
0.9860516,0.0,1.7523766e-05,2.5629997e-06,0.0,0.0008151233,0.00082451105,0.0010607541,1.0162592e-05,0.0014581084
0.99345815,0.0,2.0861626e-07,4.172325e-07,2.8908253e-06,0.00025644898,0.00038981438,2.0861626e-07,0.00015857816,0.00093972683
0.0,0.008404851,1.296401e-05,0.99995273,1.12354755e-05,0.00015878677,0.00074994564,0.0,0.9893285,0.0
0.9539572,0.0,1.3917685e-05,1.013279e-06,2.0861626e-07,0.0012581348,0.0005965233,6.2584877e-06,0.08456373,0.0029589236
5.13494e-05,4.4703484e-07,0.99986243,0.046343893,1.1026859e-05,0.00039237738,0.0032353401,2.8431416e-05,0.0005364418,2.2649765e-06
6.377697e-05,8.940697e-08,0.99763924,8.46386e-06,9.864569e-06,0.00025352836,0.0041143894,2.8818846e-05,0.20614222,5.5998564e-05
0.9704875,0.0,7.897615e-06,1.4901161e-06,3.2782555e-07,0.00039619207,0.00045877695,4.172325e-06,0.008581221,0.0017577708
0.0003607273,0.0,2.3245811e-06,1.9669533e-06,2.9802322e-07,4.5776367e-05,0.00035446882,5.5730343e-06,0.9987876,0.00039327145
0.46338335,0.0017263591,0.48496747,1.7642975e-05,1.758337e-06,0.0050044954,0.056225,0.00026741624,0.0018594861,0.00093606114
2.1606684e-05,0.99865896,0.00047245622,0.0044679046,0.00021073222,0.021464407,0.0006669462,2.9802322e-08,0.34432083,0.0022657812
0.9873295,2.9802322e-08,0.00018763542,1.3113022e-06,2.3841858e-07,0.0004504621,0.001036644,1.937151e-06,0.00084272027,0.00056672096
0.9968113,2.9802322e-08,7.748604e-07,2.3841858e-07,5.9604645e-08,0.0019222498,0.004286617,2.6226044e-06,0.00035876036,0.00021117926
0.16123852,2.9802322e-08,0.64365,2.4825335e-05,7.390976e-06,0.00021886826,0.0018442571,6.771088e-05,0.30597782,0.00010621548
2.3841858e-07,2.771616e-06,7.748604e-07,0.99999404,2.682209e-07,0.0004143715,0.00214687,5.9604645e-08,0.6408295,2.9802322e-08
0.076611966,0.0,2.7120113e-06,3.2782555e-07,1.4901161e-07,0.00029924512,0.00022852421,0.00014549494,0.95127094,0.0006417334
0.3931228,0.0,5.3942204e-06,3.2186508e-06,5.662441e-07,0.0007831454,0.007418126,2.2172928e-05,0.7378659,0.000110566616
9.23872e-07,0.9981763,0.0001680553,0.0023803115,2.0563602e-06,0.0049604774,0.0004325509,2.0861626e-07,0.94004416,0.00033798814
5.9604645e-08,4.7683716e-07,2.3245811e-06,0.9999995,7.748604e-07,0.00020387769,0.0011289418,0.0,0.00089529157,2.9802322e-08
0.9968548,0.0,2.3841858e-07,2.9802322e-08,0.0,0.00016885996,0.0003168583,2.82228e-05,2.2739172e-05,0.00031882524
0.99676514,0.0,2.3841858e-07,2.9802322e-08,8.940697e-08,0.00041556358,0.0007401407,3.9339066e-06,0.00019329786,0.00030109286
0.9959808,0.0,1.66893e-06,1.1920929e-07,0.0,0.0002847016,0.00043040514,3.993511e-06,2.9176474e-05,5.3703785e-05
0.0021161437,1.2516975e-06,1.5199184e-05,5.888939e-05,1.5199184e-06,0.00087827444,0.0152722895,3.4570694e-06,0.11438385,0.57976276
1.2814999e-06,0.9980372,7.7843666e-05,0.0017274916,1.7881393e-07,0.0011377037,0.00026488304,0.0,0.9989821,2.8014183e-06
4.053116e-06,1.4156103e-05,0.00400573,4.428625e-05,9.974837e-05,0.99999774,0.0077421665,4.374981e-05,0.2450341,2.7924776e-05
0.99649036,0.0,0.0,1.4901161e-07,0.0,0.00070124865,0.00056630373,2.0861626e-07,0.0012977421,6.309152e-05
9.23872e-07,0.00013270974,0.9394188,0.00012639165,0.00751549,0.0017039478,0.29790866,0.0017225146,0.0011532903,0.0042768717
0.0045294166,5.662441e-07,0.0006363094,6.2584877e-07,4.4703484e-07,8.195639e-05,0.0011816323,7.584691e-05,0.0004851222,0.98978055
7.778406e-06,0.0,0.0058351755,7.122755e-06,0.875865,1.50203705e-05,0.0021746457,1.2636185e-05,0.99976397,5.930662e-06
5.698204e-05,4.0084124e-05,0.00010034442,3.3915043e-05,9.119511e-06,0.999997,0.03283298,1.1324883e-06,0.00716877,1.8388033e-05
0.9488331,3.784895e-06,5.6922436e-06,5.2452087e-06,7.2419643e-06,0.0011636019,0.00018924475,3.5762787e-07,0.062396884,0.001958698
0.9702046,8.6426735e-07,1.1771917e-05,0.0,2.9802322e-08,0.0003682375,0.0007855296,5.930662e-06,0.00011232495,0.106604904
2.1100044e-05,0.9958047,9.7960234e-05,0.002749443,0.00018107891,0.005066037,0.0014243722,1.1920929e-07,0.047355354,0.011338413
0.9980501,0.0,1.7881393e-07,5.9604645e-08,0.0,0.0010278225,0.0013654828,1.9073486e-06,4.646182e-05,1.6242266e-05
0.0017777681,0.0,9.804964e-06,3.0010939e-05,3.2186508e-06,0.00010097027,0.00032642484,0.00033837557,0.9987072,3.8325787e-05
1.937151e-06,3.516674e-06,1.9341707e-05,1.758337e-06,6.2584877e-07,0.005306542,0.8796897,3.6358833e-06,0.7879131,0.0056435764
0.998116,0.0,5.9604645e-08,0.0,0.0,5.6296587e-05,0.000107854605,7.897615e-06,0.000117748976,4.1007996e-05
4.053116e-06,5.9604645e-08,0.0001423955,2.2053719e-06,7.748604e-07,0.9999969,0.002607286,1.1622906e-06,0.12064445,2.783537e-05
0.19217053,2.9802322e-07,0.9070595,2.0861626e-07,0.0,9.718537e-05,0.0019083321,0.0020009577,1.2606382e-05,3.8295984e-05
0.00011357665,2.3841858e-07,2.7418137e-06,0.99998343,2.682209e-07,0.00053432584,0.0003835559,2.9802322e-08,0.002827227,3.695488e-06
0.13054198,1.7881393e-07,0.0015083253,8.6426735e-07,3.2782555e-07,0.00023546815,0.0031396747,0.0049755573,0.0011489987,0.88604474
0.44502658,2.9802322e-08,1.4901161e-07,4.7683716e-07,2.9802322e-08,0.00013783574,0.00037300587,1.2040138e-05,0.82537055,7.760525e-05
0.041070163,1.1861324e-05,9.894371e-06,1.3709068e-06,2.3543835e-06,0.00051158667,0.30508426,3.874302e-07,1.6450882e-05,0.0037499666
0.011865109,2.9802322e-08,1.1920929e-07,2.9206276e-06,2.9802322e-08,8.499622e-05,0.00020939112,1.1920929e-07,0.99652445,1.7791986e-05
4.9561262e-05,0.99587,0.00010609627,0.00014871359,0.00019288063,0.0022347271,0.0004885793,8.940697e-08,0.021149784,0.012937427
0.997979,0.0,5.9604645e-08,8.046627e-07,2.9802322e-08,0.0010354817,0.0008200705,6.854534e-07,0.000256747,0.00030350685
0.19197553,2.115965e-06,5.671382e-05,2.3514032e-05,2.3841858e-07,0.0005247295,0.0020401478,3.5762787e-07,0.60105526,0.054282427
0.99497646,0.0,5.364418e-07,5.9604645e-08,0.0,0.0019277334,0.0004810691,0.0001449883,0.0003118217,0.0003286004
0.26551074,7.748604e-07,0.9747097,2.115965e-06,2.9802322e-08,7.763505e-05,0.0012907982,0.0025739968,2.4735928e-05,0.00021234155
0.8162732,0.0,1.3619661e-05,9.000301e-06,0.01134339,0.00064846873,0.0038050115,2.1874905e-05,0.00016018748,0.0038525164
0.9935616,0.0,3.2186508e-06,8.940697e-08,0.0,0.00037318468,0.000513345,0.0003066361,7.674098e-05,0.0003618896
0.020868689,4.6879053e-05,7.3611736e-06,4.4703484e-05,0.00046905875,0.0028872192,0.7647521,9.298325e-06,7.158518e-05,0.006397307
0.80146575,4.3213367e-06,0.2697507,4.172325e-07,2.3841858e-07,0.00016450882,0.0006586313,0.0015925169,0.00024279952,0.006028652
0.3725642,0.0,1.7881393e-07,0.0,0.0,2.4735928e-06,2.670288e-05,0.76320416,1.463294e-05,2.7805567e-05
5.9604645e-08,1.1920929e-07,3.439188e-05,0.0001962781,2.4735928e-05,0.9999997,0.0019010901,0.00010058284,0.94506043,5.066395e-07
1.1920929e-07,2.9802322e-08,2.3722649e-05,0.99999946,0.0002643168,0.00034725666,0.00045064092,1.1920929e-07,4.7177076e-05,5.9604645e-08
0.0022366345,0.0,5.9604645e-07,1.6987324e-06,5.9604645e-08,6.482005e-05,0.00034204125,5.2452087e-06,0.9960438,0.00020563602
0.9979117,0.0,1.6093254e-06,1.1920929e-07,0.0,0.0014751554,0.0010209382,7.1525574e-07,0.00048404932,0.0002990663
6.5267086e-06,8.940697e-08,0.9979163,0.00014126301,0.10156396,0.00011739135,0.0016590357,3.0398369e-06,0.00020611286,1.1324883e-06
0.0,8.6307526e-05,0.99047947,0.99944943,0.0003619492,0.0027505457,0.16576293,4.172325e-07,4.068017e-05,2.9802322e-08
0.98833,2.9802322e-08,1.937151e-06,8.940697e-08,3.874302e-07,0.0002850592,0.00055098534,7.3611736e-06,0.0012283623,0.005923599
3.1977892e-05,0.0,7.072091e-05,1.7881393e-06,0.0,3.3676624e-05,0.0019832551,0.00033339858,0.99966896,2.95043e-05
1.2397766e-05,1.6093254e-06,4.4703484e-07,1.7285347e-06,8.34465e-07,0.004614264,0.9988106,2.9802322e-07,9.867549e-05,0.00025737286
3.4421682e-05,2.5629997e-06,0.9968547,0.00011730194,0.0014858842,0.0005983114,0.005264491,5.0365925e-06,0.08608577,0.00011700392
0.0015095174,0.0,2.7120113e-06,1.013279e-06,3.874302e-07,6.54459e-05,0.0005173981,1.0102987e-05,0.9990576,2.413988e-06
4.172325e-07,0.97023374,0.0017166436,0.0008522272,4.4465065e-05,0.9961362,0.004938692,2.861023e-06,0.27631712,1.886487e-05
0.0,0.0,1.0967255e-05,0.99999994,7.134676e-05,0.00020584464,0.0060269237,0.0,0.00062838197,6.854534e-07
0.0,0.99623394,0.0004580319,0.999925,2.4616718e-05,0.024482548,0.004882157,0.0,0.008483231,1.8030405e-05
0.3972594,0.0,4.917383e-06,1.1920929e-07,0.0,0.00024583936,0.0004040897,0.005829245,0.7148096,9.62615e-05
2.4080276e-05,0.00047972798,0.0005994737,6.9111586e-05,1.3947487e-05,0.999999,0.0012649894,0.00017741323,0.013668388,8.046627e-06
0.97992426,0.0,2.0861626e-06,2.9802322e-07,4.4703484e-07,0.0002489388,0.00035646558,0.00020927191,0.0018274188,0.000836581
2.3841858e-07,5.301833e-05,0.9469164,0.0007325113,0.00051376224,0.99975646,0.006156504,3.6388636e-05,0.10781866,2.2530556e-05
0.030622482,0.0,2.0563602e-06,8.85129e-06,0.0,0.00114277,0.0008010566,0.00061941147,0.97505903,0.00022184849
0.0,3.695488e-06,7.5399876e-06,0.9999997,0.33601835,0.00058707595,0.00195688,5.364418e-07,1.564622e-05,1.1920929e-07
0.00017389655,0.0,2.9802322e-07,2.95043e-06,2.9802322e-08,2.7120113e-05,0.0003540218,6.854534e-07,0.99982125,1.8954277e-05
0.966689,0.0,1.0162592e-05,5.2452087e-06,8.6426735e-07,0.0008081794,0.00035896897,0.00028380752,0.0012500882,0.03893459
2.9802322e-07,8.940697e-08,5.364418e-07,0.9999987,0.0013368726,0.0008070171,0.00045731664,2.9802322e-08,0.026660532,0.0
0.97646695,0.0,1.5765429e-05,6.3180923e-06,2.9802322e-07,0.0022922754,0.0013302863,5.7816505e-06,0.023184985,0.0021114647
7.688999e-06,0.0,8.940697e-08,0.0,0.0,0.0,2.2053719e-06,0.0,2.4735928e-06,0.9999925
0.0,9.9122524e-05,7.3611736e-06,0.9999925,2.413988e-06,0.0023543537,0.9502774,8.940697e-08,9.0420246e-05,4.7683716e-07
2.9802322e-08,2.5510788e-05,0.0005303025,0.00014838576,0.07143101,0.9999978,0.0049088,0.00029838085,0.000479877,9.536743e-06
0.99259204,0.0,5.930662e-06,8.34465e-07,6.2584877e-07,0.009486586,0.0009520352,1.6778708e-05,5.0485134e-05,0.00013154745
2.5391579e-05,2.9802322e-08,2.0861626e-07,0.0,0.0,0.0,7.4505806e-07,1.1384487e-05,2.771616e-06,0.9999942
0.001419425,0.0,1.4901161e-07,1.1175871e-05,1.4007092e-06,0.00020459294,0.0017283261,1.3381243e-05,0.998322,0.00010621548
0.00023341179,0.0,2.9802322e-07,2.0831823e-05,5.9604645e-08,7.721782e-05,0.0008582175,2.3841858e-07,0.9997927,1.090765e-05
0.028884202,0.0,2.3841858e-07,8.940697e-08,8.940697e-08,5.981326e-05,0.00021579862,2.4437904e-06,0.97515905,0.00026530027
0.01529482,0.000110298395,5.841255e-06,7.301569e-06,2.4437904e-06,0.007668644,0.43458423,2.3245811e-05,0.0013477206,0.0044582784
0.06013629,0.0,7.379055e-05,5.7816505e-06,9.23872e-07,0.0005698204,0.0041196644,0.8446765,0.009021133,0.0022230148
0.010980934,6.508827e-05,0.8740371,2.9802322e-07,5.9604645e-08,0.0001411438,0.00074103475,0.031942695,0.00029209256,0.006152123
0.0013256967,0.0,0.0,8.6426735e-07,0.0,0.00012877584,0.000500381,1.013279e-06,0.99782324,4.1991472e-05
1.7464161e-05,0.9980928,0.0016643703,0.0003618598,4.6938658e-05,0.0060407817,0.003366381,2.413988e-06,0.002822727,0.0025492013
1.4901161e-07,0.0018798709,0.0018905401,0.99995136,0.025908738,0.0028802752,0.02039212,0.0,0.038765937,9.298325e-06
0.0014390945,0.000118881464,0.00076818466,1.7106533e-05,1.6242266e-05,0.00013667345,0.00027111173,0.0,0.019578218,0.9541597
0.56045324,0.0,4.0233135e-06,8.940697e-08,0.0,4.053116e-06,0.000102669,0.614396,3.8951635e-05,2.8043985e-05
5.364418e-07,4.7683716e-07,0.00014069676,0.999998,0.0031363368,0.00036770105,0.0017777979,1.7881393e-07,0.06446764,1.7881393e-07
0.9630553,2.9802322e-08,5.2928925e-05,3.5762787e-07,3.874302e-07,0.00034567714,0.00064614415,4.801154e-05,0.017250985,0.0015555918
0.9976946,0.0,1.4603138e-06,2.0861626e-07,0.0,0.0001949966,0.0002194345,6.854534e-07,0.00025123358,3.46601e-05
0.997153,0.0,1.758337e-06,1.1920929e-07,1.7881393e-07,0.00072804093,0.00077432394,1.090765e-05,0.00037175417,0.00056794286
0.92670834,0.0,6.2584877e-07,8.940697e-08,0.0,0.00034314394,0.00017359853,5.3048134e-06,0.05747971,0.00530082
2.592802e-06,1.642108e-05,0.042196274,0.00014701486,0.5938058,0.2393235,0.0039569438,1.1026859e-06,0.9953518,4.2021275e-06
8.422136e-05,1.1920929e-07,0.00043800473,1.3798475e-05,1.2516975e-06,0.99999964,0.0020490587,0.00019365549,0.0038249493,1.8179417e-06
0.99203926,0.0,2.0861626e-07,4.708767e-06,5.364418e-07,0.0013257265,0.001108706,1.1026859e-06,0.001081109,0.0025731325
0.7100065,0.0,6.6161156e-06,4.6789646e-06,2.4408102e-05,0.00014024973,0.0002914071,5.8978796e-05,0.00032046437,0.65482527
0.99707043,0.0,5.9604645e-08,5.9604645e-08,0.0,0.0002656281,0.0005711615,4.479289e-05,3.4332275e-05,0.0005132258
9.199977e-05,0.0,0.0,0.0,0.0,5.9604645e-08,1.937151e-06,0.0,6.380677e-05,0.9999981
0.00053185225,0.00012591481,0.09573156,5.030632e-05,1.7881393e-06,0.00037387013,0.026402652,6.4224005e-05,0.9974102,8.022785e-05
0.00149104,7.748604e-07,0.9882566,4.9471855e-06,1.5795231e-06,0.0003605783,0.00055655837,1.5795231e-06,0.0011774302,0.00041610003
0.021764934,5.9634447e-05,0.00010031462,3.2186508e-06,8.314848e-06,0.0026713908,0.42377725,0.00015419722,0.8385426,0.003434956
0.0003437698,2.9802322e-08,1.3232231e-05,7.1674585e-05,0.9584047,0.009482235,0.00044688582,1.4305115e-06,0.0018179417,1.2457371e-05
0.6818691,2.9802322e-08,7.95722e-06,6.377697e-06,1.1920929e-07,0.00024685264,0.00047579408,0.0007690191,0.019123286,0.059437424
0.0012702942,5.9604645e-08,2.682209e-07,0.9999154,8.6426735e-07,0.0008993745,0.00068312883,2.9802322e-08,0.00048455596,3.5762787e-07
8.940697e-08,0.0,0.0024648607,5.8233738e-05,0.021136671,1.2367964e-05,0.016189218,0.00016322732,0.9998257,3.9339066e-06
0.9974065,0.0,2.9802322e-08,2.9802322e-08,0.0,0.000595659,0.0002487898,1.7881393e-07,0.00058451295,0.0001309812
0.5987209,0.0,0.00011640787,4.1127205e-06,1.3113022e-06,0.00034180284,0.001246959,0.034362435,0.05493769,0.022644162
0.98111117,0.0,3.874302e-07,7.748604e-07,8.940697e-08,0.0009889007,0.0012594163,5.662441e-07,0.014103413,0.00080627203
5.3346157e-05,0.0,1.4901161e-07,3.874302e-07,3.2782555e-07,1.8179417e-06,0.00016489625,2.9802322e-08,0.999947,1.1920929e-07
6.854534e-07,0.9994651,6.556511e-06,0.00039181113,1.5795231e-06,0.0004349947,0.00013589859,0.0,0.9983791,1.5497208e-06
0.99856126,2.9802322e-08,1.1026859e-06,8.940697e-08,0.0,0.00016188622,0.0002900362,3.5762787e-07,3.85046e-05,0.0002220571
0.27684215,5.662441e-07,0.8431132,1.3589859e-05,4.0233135e-06,0.00064381957,0.0015222132,0.000104010105,0.0078828335,0.0003245771
1.4305115e-06,5.272031e-05,0.00086319447,0.99986863,0.002195835,0.0031300187,0.024121225,3.1888485e-06,0.8784416,5.9604645e-08
0.982962,0.0,8.940697e-07,1.7881393e-07,0.0,0.00012072921,0.00022062659,0.0025834143,6.1273575e-05,0.00027543306
1.7106533e-05,0.0,0.99987274,0.00035446882,0.0010431409,0.00014990568,0.003277421,1.0579824e-05,0.019169241,1.8119812e-05
0.00016584992,2.7894974e-05,6.785989e-05,1.6659498e-05,1.3649464e-05,0.00141868,0.99497545,2.9593706e-05,0.19023225,0.0020878613
4.7385693e-06,7.292628e-05,0.0010235906,1.0430813e-05,2.3931265e-05,0.0002978146,0.0140453875,1.001358e-05,0.037955344,0.935728
0.9904329,0.0,1.4901161e-07,1.1920929e-07,1.1920929e-07,0.00060012937,0.0013999939,1.564622e-05,0.0003362894,0.001511991
0.015900731,4.172325e-07,0.0009665787,1.3113022e-06,3.5762787e-07,0.9797199,0.0060136616,2.861023e-06,0.0006235838,6.0498714e-06
8.940697e-08,0.98562676,6.723404e-05,0.99955183,4.7683716e-07,0.0111910105,0.0019536614,0.0,0.98770034,2.0563602e-06
1.1533499e-05,0.00032785535,0.0007521808,6.3210726e-05,2.8580427e-05,0.9998401,0.09535134,4.467368e-05,0.030651718,0.00046363473
1.8179417e-06,8.940697e-08,0.97463083,4.091859e-05,1.7493963e-05,9.387732e-06,0.00035363436,0.9459064,0.00033703446,7.176399e-05
0.00015699863,0.0,5.2124262e-05,3.2484531e-06,3.5762787e-07,9.343028e-05,0.0011343956,0.0013123453,0.9696828,0.015005976
2.592802e-05,0.9978355,0.00020161271,0.0006148815,4.5627356e-05,0.012521446,0.000723511,1.4901161e-07,0.04251939,0.0027717054
0.0,6.1690807e-06,0.99059474,0.99984896,0.0020058155,0.000118911266,0.003968537,2.9802322e-08,0.98692036,0.0
2.2649765e-06,0.0,1.5318394e-05,1.0728836e-06,0.0,2.0951033e-05,0.0014781952,0.00024619699,0.9997015,0.00019294024
0.0,4.5478344e-05,0.0006941855,0.99999034,0.9870266,0.967824,0.006102115,2.592802e-06,0.00015881658,0.0
0.9565011,1.4901161e-07,7.933378e-05,1.7881393e-07,4.4703484e-07,0.00010535121,0.00023773313,3.6507845e-05,0.00020602345,0.025372475
0.9928304,0.0,5.364418e-07,2.4437904e-06,8.940697e-08,0.001142025,0.0007240772,8.761883e-06,0.00014707446,0.00083234906
9.745359e-06,4.965067e-05,0.3740649,8.583069e-06,1.6629696e-05,0.9998797,0.004540801,0.0020015538,0.00044977665,0.00026851892
0.00218305,0.0,5.4240227e-05,4.3809414e-06,0.0,8.6426735e-06,0.00028705597,0.9991019,2.399087e-05,8.007884e-05
2.9802322e-08,1.7881393e-07,0.0003412962,3.3676624e-06,0.00013625622,1.0,0.00028651953,2.1368265e-05,0.0028862357,1.1920929e-07
0.01059252,2.9802322e-08,0.0001706481,2.3752451e-05,2.682209e-07,0.99463487,0.001427412,4.634261e-05,0.018032044,9.652972e-05
1.1920929e-07,2.69413e-05,0.001909554,7.349253e-05,2.9802322e-05,1.0,0.0037826896,9.119511e-06,0.016391784,9.596348e-06
0.000119537115,1.4901161e-07,0.0004425645,1.1026859e-06,1.9073486e-06,6.6667795e-05,0.0017254949,5.6236982e-05,0.029613853,0.98533905
1.5497208e-06,5.9604645e-08,0.9999387,0.00013172626,0.00023183227,0.00023701787,0.0018102527,0.0024027824,0.00038552284,6.2286854e-05
6.67572e-06,0.0,6.2584877e-07,0.9999899,2.9802322e-08,0.00014051795,0.0008855164,5.066395e-07,1.1205673e-05,2.9802322e-07
0.38775757,0.0,8.147955e-05,0.000102341175,5.543232e-05,0.007092297,0.0010805726,2.4735928e-06,0.10033405,0.03653422
0.99924886,0.0,0.0,0.0,0.0,0.00015974045,0.00010216236,1.013279e-06,1.9460917e-05,9.679794e-05
0.0062071383,1.1920929e-07,3.761053e-05,2.3543835e-06,8.940697e-06,0.9995425,0.019198537,0.000101447105,0.028211862,0.000177145
0.004457861,2.2053719e-06,0.0001385212,4.440546e-06,9.536743e-07,0.0044234097,0.41996038,3.7372112e-05,0.07910362,0.0007946491
6.67572e-06,0.24734136,0.00566113,6.1392784e-06,0.00027626753,0.007009864,0.00017610192,3.6895275e-05,0.054799616,0.009781867
0.041763157,0.0,3.606081e-06,8.940697e-08,0.0,0.9568575,0.002700746,3.3676624e-05,0.0010404289,6.219745e-05
0.8835843,0.0,2.8312206e-06,1.1563301e-05,4.172325e-06,0.0002066195,0.000538975,0.00026929379,0.016685039,0.02536434
0.044402927,7.748604e-07,0.00010383129,5.662441e-07,1.1026859e-06,4.1544437e-05,0.0012154281,0.0004361868,0.00095430017,0.93967444
0.0006414056,2.1457672e-06,8.98242e-05,0.00010544062,3.6150217e-05,0.9835455,0.005412221,7.137656e-05,0.1763939,0.0018365979
0.2067475,2.3841858e-07,0.0046179593,3.027916e-05,0.000100016594,0.0006378889,0.012658775,0.12236911,0.005081147,0.04204139
0.00468117,1.4901161e-07,3.5762787e-06,1.847744e-06,2.0861626e-07,0.96374565,0.0029087663,1.5467405e-05,0.050225586,0.00815925
0.984113,0.0,2.0563602e-06,0.0,0.0,1.50203705e-05,7.5519085e-05,0.0026060045,3.9041042e-06,2.69413e-05
0.5628203,2.9802322e-08,2.0861626e-07,8.34465e-07,0.0,0.00018143654,0.00023964047,1.9580126e-05,0.5359927,0.00093999505
2.2768974e-05,5.64456e-05,0.9750893,1.2606382e-05,3.4451485e-05,0.99940157,0.0075616837,0.00042378902,0.0019834042,9.745359e-06
0.9779035,2.9802322e-08,4.300475e-05,1.2516975e-06,3.2186508e-06,0.001811564,0.0017879307,1.4334917e-05,0.007030636,0.002328992
8.940697e-08,0.008929253,8.5532665e-05,0.9999639,0.03276834,0.035858333,0.5235774,2.9802322e-07,0.00079631805,2.3663044e-05
0.99406284,0.0,5.066395e-07,2.0861626e-07,2.9802322e-08,0.0011593401,0.0002092421,1.1742115e-05,0.000159055,0.002348423
6.735325e-06,1.7881393e-06,5.158782e-05,0.9999753,3.08156e-05,0.0004672706,0.0029063523,8.940697e-08,0.0017412305,3.9815903e-05
0.99169123,0.0,0.0,5.9604645e-08,0.0,9.49502e-05,0.00012820959,1.7881393e-07,0.0055150986,0.0003003478
4.953146e-05,3.606081e-06,1.9967556e-06,7.95722e-06,1.013279e-06,0.00024271011,0.0072572827,7.778406e-06,0.99089074,0.0036788285
7.987022e-06,0.00010973215,0.001097858,8.106232e-06,8.34465e-07,0.9999984,0.008956879,3.0398369e-06,0.004834801,4.5716763e-05
2.9802322e-08,1.8775463e-06,1.50203705e-05,0.99999964,0.0023342073,0.00046217442,0.0049459636,8.046627e-07,0.0003555417,9.536743e-07
0.9952741,0.0,1.0728836e-06,1.2814999e-06,1.4901161e-07,0.0014197826,0.0020186007,9.23872e-07,0.0012132227,0.00016316772
1.731515e-05,0.0,1.4901161e-07,2.8014183e-06,8.940697e-08,4.2140484e-05,0.00023907423,6.854534e-07,0.99995625,2.6524067e-06
0.080678105,6.2584877e-07,0.9817798,1.5795231e-06,1.5199184e-06,0.00033420324,0.0047205985,0.0003620088,0.000567317,6.4224005e-05
5.8978796e-05,0.9985444,6.425381e-05,7.352233e-05,1.1950731e-05,0.0058116913,0.000109255314,8.940697e-08,0.0033147335,0.0006302595
0.99569464,0.0,2.0861626e-07,2.0861626e-07,8.940697e-08,0.0004979372,0.00041651726,3.9041042e-06,0.00063866377,0.00020873547
0.004777819,0.0,3.5464764e-06,2.682209e-07,0.0,0.00013017654,0.0011576414,6.9737434e-06,0.9989692,8.6426735e-06
0.6131972,0.0,3.516674e-06,2.0861626e-07,9.945035e-05,0.00012099743,0.00014129281,1.0788441e-05,0.2213279,0.00094637275
2.9802322e-08,0.00042825937,0.9712617,0.21564129,0.00036418438,0.0049672723,0.5875076,1.3321638e-05,0.9748533,7.5399876e-06
0.0091148615,0.0,4.7683716e-07,5.364418e-07,5.9604645e-08,4.6104193e-05,0.00017687678,3.0994415e-05,0.991951,1.6272068e-05
0.99254405,0.0,4.7683716e-07,3.5762787e-07,5.543232e-06,0.0007610619,0.00093376637,3.784895e-06,0.00013101101,0.0010042489
0.60802126,0.0,2.0861626e-07,0.0,0.0,4.7683716e-07,3.325939e-05,0.57232535,0.000102967024,4.5508146e-05
0.08996993,2.9802322e-08,5.9604645e-07,2.0861626e-07,8.940697e-08,0.0013495982,0.3908443,1.013279e-06,0.00014057755,9.715557e-06
0.8082171,1.2516975e-06,1.2814999e-06,3.5762787e-06,8.940697e-08,0.0018454492,0.0015100241,2.2649765e-06,0.36055413,0.0019566715
0.9373081,8.940697e-08,1.8775463e-06,5.662441e-07,5.9604645e-08,0.00024914742,0.0004030764,2.0861626e-07,0.110937834,0.0021769404
0.0003604591,0.0,0.0,0.0,0.0,8.672476e-06,0.00015717745,7.748604e-07,0.99852556,0.00012898445
0.27700305,7.748604e-07,8.636713e-05,2.1785498e-05,3.8444996e-06,0.0016773939,0.078371435,0.008314043,0.0009548664,0.051258206
1.6391277e-06,0.0,0.0002809167,1.0550022e-05,7.1525574e-07,1.2218952e-05,0.002502054,5.6028366e-06,0.9999774,9.208918e-06
0.0,0.0,3.683567e-05,0.99999046,0.9994474,2.604723e-05,0.00013920665,9.23872e-07,0.0007105768,0.0
0.86119944,0.0,1.2814999e-05,2.3841858e-07,8.34465e-07,0.0015635192,0.00031802058,4.7683716e-07,0.019640237,0.018845707
0.86249816,1.7881393e-07,0.0030789673,2.0861626e-07,7.748604e-07,0.00066161156,0.00083723664,0.00013250113,0.025856882,0.005494207
0.3923592,8.940697e-08,2.0503998e-05,1.9967556e-06,0.0,0.00080269575,0.0017387867,0.00015345216,0.3987761,0.004032582
1.1265278e-05,1.9967556e-06,5.364418e-07,1.3381243e-05,3.0040741e-05,0.0042156875,0.9966829,1.4901161e-06,0.0042188168,0.005626738
0.00031784177,0.0,0.0001886189,7.5399876e-06,7.122755e-06,5.7697296e-05,0.0010779202,0.9842671,0.0030127168,0.0018716455
1.4901161e-07,8.821487e-06,8.4370375e-05,0.9999913,1.3530254e-05,0.0006854236,0.0022419095,4.23193e-06,0.00024074316,1.5944242e-05
1.2129545e-05,6.1392784e-06,1.3411045e-06,4.2825937e-05,2.026558e-06,0.89138997,0.92662895,2.1457672e-06,0.0028757155,0.010907114
2.771616e-06,5.9604645e-08,0.00420174,0.00024703145,0.5596092,0.00095912814,0.055692166,5.7905912e-05,0.9791726,0.00016605854
2.5957823e-05,5.9604645e-08,0.99992603,0.00019451976,1.770258e-05,0.00031015277,0.007846028,1.090765e-05,0.07847029,6.1392784e-06
1.0758638e-05,0.0,1.4901161e-06,6.2584877e-07,0.0,2.2619963e-05,0.0009024143,6.854534e-07,0.9999629,3.6656857e-06
0.99790573,0.0,5.066395e-07,1.7881393e-07,0.0,0.0005195439,0.00062054396,5.990267e-06,0.00023564696,5.0485134e-05
0.98913604,5.9604645e-08,9.23872e-07,2.3841858e-06,8.940697e-08,0.00071018934,0.0016666651,9.924173e-06,0.00028437376,0.0031177104
0.000109016895,0.0,1.7881393e-07,0.9999933,1.4901161e-07,0.00019958615,0.0001746118,5.9604645e-08,9.119511e-06,4.7683716e-07
3.951788e-05,0.0,6.854534e-07,0.9999956,2.4437904e-06,0.0002746582,0.0006509721,8.940697e-08,1.04904175e-05,2.9802322e-08
0.0027302206,0.0,5.620718e-05,1.5497208e-06,9.179115e-06,6.341934e-05,0.002158314,1.8626451e-05,0.9918325,1.6987324e-05
0.99591076,0.0,2.682209e-07,5.364418e-07,0.0,0.0003477633,0.00039565563,2.0861626e-07,0.00089880824,0.00023019314
0.9818826,1.1920929e-07,5.2154064e-05,5.364418e-07,7.748604e-07,0.001547575,0.0021582842,8.0794096e-05,0.0021643043,0.0015714467
0.059445113,5.066395e-07,3.2782555e-07,9.23872e-07,1.5795231e-06,0.0021246374,0.2637647,3.2782555e-07,0.00089246035,0.00020864606
0.00021395087,5.8799982e-05,0.00040504336,0.00024217367,3.9070845e-05,0.0052502453,0.9701221,0.00013652444,0.00052544475,0.0012069345
0.9126142,4.4703484e-07,7.2181225e-05,4.2766333e-05,4.172325e-07,0.018833816,0.0020728111,2.6136637e-05,0.0663676,0.0006118715
0.012041092,2.9802322e-08,1.1920929e-06,1.4901161e-06,1.4901161e-07,0.0006427169,0.95009184,1.4901161e-07,0.0009188652,0.000111460686
2.9057264e-05,5.9604645e-08,0.0001116097,1.1920929e-06,1.5199184e-05,0.00013622642,0.005645275,0.00014746189,0.9360966,0.028912008
0.70695424,0.0,2.9802322e-06,5.364418e-07,1.1920929e-07,0.00019142032,0.00022956729,6.809831e-05,0.5596527,0.0021140873
6.279349e-05,0.0,1.7881393e-07,2.720952e-05,0.0,2.732873e-05,0.00047889352,1.4901161e-07,0.99991864,3.6656857e-06
6.556511e-07,0.9981507,3.620982e-05,0.0012188554,3.33786e-06,0.0005568862,0.0041615367,0.0,0.9965539,2.0563602e-05
0.0006530583,0.0,5.066395e-07,1.0460615e-05,1.1920929e-07,0.00026744604,0.00072970986,2.0563602e-06,0.9966696,0.00091958046
6.362796e-05,0.0,0.9997902,1.8119812e-05,9.268522e-06,0.00013962388,0.0021997988,1.7791986e-05,0.15716287,2.3245811e-06
7.683039e-05,0.99438024,0.0008738339,0.08717626,2.9534101e-05,0.006973505,4.339218e-05,4.7683716e-07,0.013460934,0.0009728074
0.29080218,0.0,1.9967556e-06,5.364418e-07,1.7881393e-07,0.00070646405,0.0009549558,3.874302e-07,0.78154695,0.0018919408
1.013279e-06,0.9929855,3.3974648e-06,0.0011494756,2.9802322e-08,0.0008172989,0.0019683242,0.0,0.9946042,0.0002477169
1.2397766e-05,0.9968804,5.7786703e-05,0.007695228,0.00049328804,0.0019577742,0.0039924085,0.0,0.64984035,0.00061133504
5.340576e-05,0.80794287,0.04924488,0.0005938709,0.00011152029,0.0040433705,0.0050576925,4.5597553e-06,0.00056424737,0.019015849
5.9604645e-08,3.2782555e-07,0.00033032894,2.041459e-05,4.3421984e-05,1.0,0.0017089844,2.115965e-06,0.017954946,9.23872e-07
4.351139e-06,0.7206191,0.020758659,0.00011783838,0.00016340613,0.0031189322,0.08979803,0.00026643276,0.0002707839,0.0043387413
4.4703484e-06,1.3113022e-06,0.9857451,4.8577785e-06,4.7385693e-06,8.127093e-05,0.00078830123,1.9431114e-05,0.7264602,1.7881393e-06
0.93247503,3.2782555e-07,5.9992075e-05,8.940697e-08,4.172325e-07,0.00027996302,0.00056168437,0.0001963377,3.6925077e-05,0.42329085
0.0,2.4467707e-05,0.0012585223,0.94835436,0.35628796,0.9999874,0.015903562,7.4505806e-07,0.021002382,2.9802322e-07
0.86355734,0.0,6.109476e-06,2.3126602e-05,0.008327961,0.00097197294,0.0011861324,1.8179417e-06,0.013345748,0.00055933
2.9802322e-08,0.00034186244,2.092123e-05,0.99999845,0.00012472272,0.034551293,0.03149098,0.0,0.24017328,1.1920929e-07
0.065861315,0.0,7.611513e-05,8.761883e-06,0.0,6.905198e-05,0.0003964603,0.9827118,7.274747e-05,0.0017052889
0.80792946,0.0,6.7442656e-05,4.0233135e-06,4.7683716e-07,0.00014898181,0.00078839064,0.023146689,0.01337868,0.00833261
0.81401145,2.3245811e-06,0.0076304674,1.3053417e-05,9.298325e-06,0.0017371476,0.0073803067,0.008553714,0.0019482374,0.0065731406
0.9939069,0.0,5.364418e-07,1.1622906e-06,1.1920929e-07,0.0003233254,0.00041228533,2.592802e-06,0.0008030236,0.001050055
9.199977e-05,0.0,0.0,0.0,0.0,5.9604645e-08,1.937151e-06,0.0,6.380677e-05,0.9999981
0.048095226,2.9802322e-08,1.9907951e-05,7.8201294e-05,1.6987324e-06,0.00011175871,0.053254515,0.11237639,0.08856872,0.0011817813
0.00013160706,0.0,3.5762787e-07,2.861023e-06,5.364418e-07,7.4863434e-05,0.0011388361,7.748604e-07,0.9997251,6.5267086e-06
0.0,4.7683716e-06,0.00023159385,0.99998915,0.011464626,0.00018495321,0.009095311,1.1920929e-07,0.0009958744,7.4118376e-05
0.00603354,0.0,0.0006105304,7.897615e-06,0.0028315783,0.0013530552,0.0027334392,0.0018811822,0.8674833,0.0007752776
2.9802322e-08,0.0069250762,0.0011289418,0.9999833,0.0020253658,0.0022434592,0.017345011,3.5762787e-06,0.066597015,1.4007092e-06
2.3722649e-05,0.0,1.7881393e-07,2.4437904e-06,3.5762787e-07,4.3153763e-05,0.0007197857,2.9802322e-07,0.9999231,5.3048134e-06
0.9969324,0.0,3.5762787e-07,2.9802322e-08,0.0,0.00048220158,0.00044360757,7.748604e-07,0.0021152198,0.00012102723
0.32868642,4.7683716e-07,0.0002386272,3.3915043e-05,5.9604645e-08,0.006502092,0.099380136,4.0471554e-05,0.00019598007,4.824996e-05
0.99533725,2.9802322e-08,4.976988e-06,2.9802322e-08,8.940697e-08,0.00026106834,0.00044694543,0.0004900098,4.181266e-05,0.0024620593
0.0,0.0013696253,0.0018191934,0.99985445,0.89033985,0.9945918,0.17333195,1.1622906e-06,0.00082555413,2.9802322e-08
0.03522092,1.013279e-06,0.012196988,1.0222197e-05,3.5762787e-07,0.00014010072,0.0011710227,0.009914398,0.00025132298,0.78406656
2.5331974e-06,0.0,1.2516975e-05,0.9999997,3.5762787e-07,5.9872866e-05,0.0003105998,8.940697e-08,1.2814999e-05,6.2584877e-07
0.015353471,2.8014183e-05,3.2782555e-07,0.0,2.9802322e-08,0.00077453256,0.96139646,1.7821789e-05,0.000100404024,0.0005366206
0.14984691,0.0,8.46386e-06,0.0,0.0,1.0162592e-05,0.00024193525,0.972239,1.9848347e-05,6.172061e-05
4.23193e-06,0.0,2.6017427e-05,0.99999845,0.0006893575,0.0013640821,0.0023369193,3.5762787e-07,0.0054941475,5.9604645e-08
1.7017126e-05,0.9579619,8.606911e-05,0.00023582578,7.748604e-07,0.0074339807,0.022907555,4.7683716e-07,0.65063107,0.0008752048
0.0,0.0,1.4901161e-06,6.2584877e-07,0.0,4.172325e-07,2.771616e-06,3.5762787e-06,5.468726e-05,0.999986
1.8268824e-05,3.5762787e-07,0.00038176775,4.3213367e-06,1.758337e-06,0.00011897087,0.0016421974,2.0742416e-05,0.14788923,0.9786129
0.8449639,0.0,2.9802322e-07,4.172325e-07,3.2782555e-07,0.00014853477,0.00031870604,5.662441e-07,0.394757,2.208352e-05
2.592802e-06,4.172325e-07,8.589029e-05,1.6778708e-05,3.8653612e-05,0.9999999,0.0022380948,6.556511e-06,0.11506474,1.2516975e-05
0.0,3.5762787e-07,0.00020721555,0.9999997,0.99827355,0.0001476407,0.00050359964,8.940697e-08,3.6358833e-05,0.0
0.014974326,0.0,2.3841858e-07,6.854534e-07,0.0,2.9802322e-06,5.8948994e-05,0.99201053,2.3186207e-05,0.00014522672
0.0005723536,2.9802322e-08,2.0861626e-07,2.9802322e-07,0.0,0.00013369322,0.00048404932,3.874302e-07,0.9988524,6.848574e-05
0.9969697,0.0,8.940697e-08,1.1920929e-07,0.0,0.00018778443,0.00065764785,5.3346157e-06,1.9282103e-05,0.0001989007
0.0018323362,0.0,6.7055225e-06,0.00011566281,3.7252903e-06,2.2232533e-05,6.7830086e-05,0.9352226,0.0078032017,0.0003027618
3.4213066e-05,0.0,0.99997413,0.00012260675,0.00024324656,0.00034064054,0.0021125674,1.3738871e-05,0.0009418726,3.0696392e-06
0.00012922287,0.0,1.7881393e-07,4.172325e-07,0.0,3.2693148e-05,0.00024950504,2.8312206e-06,0.99992454,2.2351742e-06
3.8921833e-05,1.886487e-05,1.1026859e-06,3.120303e-05,7.748604e-07,0.037530124,0.9850143,1.7881393e-07,0.029181331,0.00594607
0.0009010434,0.0,2.592802e-06,8.34465e-07,0.0,8.457899e-05,0.00081172585,5.2452087e-06,0.98878145,0.004989922
1.2516975e-06,1.642108e-05,0.00024077296,3.695488e-06,1.92523e-05,1.0,0.0022859871,5.659461e-05,0.0070824623,4.9322844e-05
0.93861496,0.0,5.9604645e-07,1.4901161e-07,2.9802322e-08,1.30832195e-05,0.000110805035,0.013484955,0.008788079,0.0007651448
0.97887594,1.7881393e-07,7.548928e-05,9.23872e-07,0.0,0.00047010183,0.001992315,0.00068444014,0.00045400858,0.0033706129
0.00025075674,4.7683716e-07,9.357929e-06,3.516674e-06,3.606081e-06,3.2424927e-05,0.0010904074,2.9802322e-07,0.99906886,0.00039181113
0.00024673343,1.8179417e-06,1.7881393e-07,1.7881393e-07,2.9802322e-08,0.0008659363,0.99818414,5.9604645e-08,5.2452087e-06,9.1552734e-05
0.9953221,0.0,2.95043e-06,0.0,0.0,6.479025e-05,0.0001244843,9.1671944e-05,0.00021025538,0.0006054342
1.0311604e-05,2.9802322e-08,9.834766e-06,0.9999916,3.5762787e-07,0.00010460615,0.0011973381,4.7683716e-07,8.407235e-05,5.9604645e-07
5.0514936e-05,0.0,6.2584877e-07,3.5762787e-07,0.0,1.0460615e-05,4.5210123e-05,0.99995816,4.7773123e-05,1.3411045e-05
0.0009688735,0.0,8.6426735e-07,2.6524067e-06,1.7881393e-07,0.00025171041,0.0016203523,2.682209e-07,0.9988413,0.000106185675
0.14702272,8.34465e-07,0.00040581822,1.1920929e-07,9.536743e-07,0.00045612454,0.002319485,5.301833e-05,0.83206964,0.02610749
1.1324883e-06,0.0,5.066395e-07,5.9604645e-08,0.0,6.2286854e-06,0.00010243058,0.9999927,0.00084105134,1.2367964e-05
3.5107136e-05,1.7553568e-05,1.2129545e-05,1.1026859e-06,3.5762787e-06,0.0009417832,0.99131674,4.7385693e-06,0.00056415796,0.00705114
0.0077970624,0.0,0.00012141466,6.943941e-06,1.4901161e-07,0.00016510487,0.002546221,9.775162e-06,0.99116725,0.00022104383
1.8775463e-06,0.0,8.940697e-08,0.0,0.0,5.9604645e-08,0.000121325254,0.0,1.0281801e-05,0.9999112
5.0365925e-06,0.00011345744,2.8848648e-05,2.1129847e-05,2.9802322e-07,0.00083744526,0.004786998,1.1920929e-07,0.96564794,0.03040728
0.015107572,0.0,1.3113022e-05,1.5437603e-05,8.940697e-08,0.00011956692,0.0038559437,5.4836273e-06,0.98645043,0.0003912151
4.708767e-06,3.0696392e-06,0.00016719103,2.9295683e-05,2.6106834e-05,0.99999964,0.002381742,5.275011e-05,0.0018256903,3.4570694e-05
0.9993583,0.0,5.9604645e-08,0.0,0.0,0.00015223026,0.00023755431,3.2782555e-07,4.61936e-05,6.368756e-05
0.9957022,0.0,0.0,4.7683716e-07,0.0,0.00023314357,0.0004388392,3.2186508e-06,0.0009916723,0.00013437867
0.97589636,0.0,6.2584877e-07,0.0,0.0,2.6196241e-05,0.000115543604,0.00050497055,0.00028520823,0.0015178025
0.99321914,0.0,0.00025355816,2.3841858e-07,5.9604645e-08,0.00062537193,0.00092092156,5.954504e-05,0.0001629889,0.0001847148
1.2934208e-05,0.0,1.1920929e-07,5.8710575e-06,0.0,4.4614077e-05,0.00049957633,2.0861626e-07,0.99994004,1.4901161e-06
0.9966687,8.940697e-08,1.6391277e-06,1.1920929e-07,4.172325e-07,0.00027295947,0.0005560219,8.374453e-06,0.00012513995,0.001745373
0.0005248785,5.990267e-06,0.00014474988,1.7613173e-05,3.3974648e-06,0.9999943,0.0061157644,1.1950731e-05,0.012681186,5.1647425e-05
0.073518544,0.0,5.066395e-07,4.1007996e-05,0.0,0.0005430579,0.00027376413,1.4901161e-07,0.95251954,5.6892633e-05
0.19826785,0.0,1.9788742e-05,0.0,0.0,5.4836273e-05,0.0005084872,0.94118667,5.6385994e-05,0.0010311306
0.0017332435,0.97654283,0.0028702915,5.2034855e-05,4.336238e-05,0.0022907257,0.0015096664,1.0162592e-05,0.006233722,0.014701754
2.0503998e-05,0.9987312,0.0010928512,0.0017024279,0.00025218725,0.007463813,0.00041899085,0.00013655424,0.033888698,0.010677546
0.9986869,0.0,0.0,0.0,0.0,0.000105679035,0.00017744303,1.1473894e-05,1.8537045e-05,0.00025114417
0.00018206239,3.2484531e-06,0.00018623471,0.00010308623,3.144145e-05,0.9999962,0.0027466714,1.4007092e-06,0.04395628,6.377697e-06
0.9985902,0.0,3.5762787e-07,0.0,0.0,0.00019577146,0.00021639466,2.9802322e-07,0.00014513731,0.00024735928
5.3942204e-06,1.7881393e-07,2.82228e-05,0.99992716,0.8387329,0.0011116266,0.001272291,2.0861626e-07,0.39817578,0.0
0.00089621544,0.0,2.8818846e-05,1.30832195e-05,4.2915344e-06,9.930134e-05,0.0020412803,2.8014183e-06,0.99927926,4.631281e-05
0.21306407,0.0,2.3841858e-07,5.9604645e-08,0.0,6.765127e-06,4.8339367e-05,0.44691992,0.00013530254,0.009536326
0.004672408,0.0,6.467104e-06,1.4215708e-05,1.2516975e-06,9.8377466e-05,0.00031927228,1.6093254e-05,0.98739797,0.00046014786
0.99524456,0.0,2.1755695e-06,2.9802322e-07,5.9604645e-08,0.0012344122,0.00049236417,1.21593475e-05,5.888939e-05,0.002717048
0.00017559528,0.0,0.00032931566,0.000116586685,9.834766e-06,4.2915344e-05,0.001685679,3.439188e-05,0.99951726,5.0216913e-05
3.784895e-06,1.1920929e-07,8.672476e-06,0.9999919,1.5497208e-06,0.00026404858,0.0014326274,0.0,0.19472307,1.9848347e-05
0.99296314,2.9802322e-08,2.115965e-06,2.9802322e-07,3.5762787e-07,0.0005183816,0.00072166324,1.2218952e-06,0.000218153,0.005993128
0.0065008104,0.0,3.874302e-07,2.3245811e-06,5.9604645e-08,9.247661e-05,0.000300169,4.7683716e-07,0.9975699,8.922815e-05
3.874302e-07,2.0563602e-06,0.0001501739,4.6491623e-06,5.9604645e-08,1.0,0.0021779537,5.930662e-06,0.0027846694,2.3841858e-06
0.8814239,0.0,3.963709e-06,9.000301e-06,5.9604645e-07,0.001876235,0.0015664697,9.23872e-07,0.37657368,0.00015482306
0.003037244,8.940697e-08,2.8908253e-06,9.924173e-06,0.0,0.00042298436,0.0012699962,5.9604645e-07,0.9965234,0.0010716915
1.3679266e-05,0.0,1.3440847e-05,0.9999846,2.9802322e-08,0.00011393428,0.0012222826,3.2782555e-06,2.0205975e-05,8.940697e-08
0.9781879,0.0,3.5762787e-07,4.7683716e-07,1.2218952e-06,0.0003068149,0.00023066998,0.0012579262,0.0016330779,0.00037264824
2.9802322e-07,3.129244e-05,0.0004093349,0.99999726,0.0007637441,0.0012380183,0.035446435,7.748604e-07,8.919835e-05,8.940697e-07
5.9604645e-08,1.1920929e-07,9.23872e-07,0.9999987,0.00027123094,0.0003348589,0.0010402203,0.0,0.08163208,5.9604645e-08
5.841255e-06,4.172325e-07,1.0728836e-06,3.2782555e-07,8.940697e-08,0.0006405711,0.42211944,0.91352296,0.00041747093,0.0002296567
2.6375055e-05,1.1920929e-07,1.0251999e-05,9.23872e-07,1.937151e-06,9.787083e-05,0.0018872619,6.854534e-06,0.06441867,0.9933474
2.0861626e-07,0.0,2.6851892e-05,0.999998,0.01591894,0.00034594536,0.0020811558,0.0,0.0011067986,5.9604645e-08
0.10421288,5.364418e-07,2.5629997e-06,0.00012204051,1.8179417e-06,0.00019395351,0.00034737587,8.6426735e-07,0.9382653,0.0012417734
5.9604645e-08,0.99917686,2.0951033e-05,0.31846577,1.1056662e-05,0.0015530884,0.0002041161,0.0,0.99632275,5.543232e-06
1.1712313e-05,3.5762787e-07,6.586313e-05,0.9999969,2.8073788e-05,0.0001155138,0.0004323125,5.364418e-07,9.7841024e-05,2.4437904e-06
0.0034300387,0.0,3.3080578e-06,7.0929527e-06,6.2584877e-07,0.00011575222,0.00027921796,5.2452087e-06,0.102758706,0.97482204
0.0,8.940697e-08,8.940697e-06,0.99999917,0.001573354,0.00016307831,0.0007278323,1.4871359e-05,4.1872263e-05,1.4901161e-06
0.0007725358,3.2186508e-06,8.940697e-08,2.0861626e-07,0.0,0.0025481284,0.92860395,2.9802322e-08,0.5934539,0.0036671758
0.000436157,0.0,0.9992986,0.00019800663,0.00044071674,0.00010749698,0.0046632886,5.3942204e-06,0.019740313,2.0742416e-05
0.9814904,0.0,4.172325e-07,4.172325e-07,8.940697e-08,0.00042691827,0.00037524104,7.635355e-05,8.675456e-05,0.011987358
0.9486996,6.854534e-07,2.3841858e-06,4.798174e-06,8.940697e-08,0.00095176697,0.0011857152,3.734231e-05,0.093616754,0.0024252534
0.0020059943,1.4603138e-06,0.0030103028,4.5657158e-05,7.0929527e-06,0.998037,0.0012131035,0.00011155009,0.0004557371,7.2687864e-05
2.5570393e-05,5.9604645e-08,0.0,0.0,0.0,0.0,5.3942204e-06,2.9802322e-08,0.00038781762,0.999986
0.996573,0.0,2.2053719e-06,0.0,0.0,0.000251621,0.0001386702,5.64456e-05,9.8496675e-05,4.8279762e-05
0.00089240074,0.0,8.34465e-07,1.1324883e-06,0.0,9.718537e-05,0.0003734529,1.66893e-06,0.99949265,1.3321638e-05
0.9749626,0.0,4.976988e-06,1.603365e-05,6.6161156e-06,0.0004605055,0.00021848083,1.847744e-06,0.0030843318,0.0082604885
0.98513913,0.0,1.1920929e-07,8.940697e-08,0.0,0.00017032027,0.00024065375,9.23872e-07,0.013963133,0.0001269579
0.0001513362,5.6505203e-05,7.4505806e-07,3.1292439e-06,1.5795231e-06,0.0015298426,0.99870527,1.7881393e-07,0.0063462555,0.0012455285
0.45186487,2.3841858e-07,0.7617058,1.8119812e-05,9.536743e-06,0.0003029406,0.0021893084,0.00428319,0.00019919872,0.001442343
0.9319386,0.0,0.00019142032,1.1920929e-07,1.8775463e-06,8.9854e-05,0.0003017485,0.018745422,7.638335e-05,0.008984357
4.8696995e-05,0.0,9.119511e-06,9.23872e-07,8.3744526e-05,5.00381e-05,0.00022348762,0.00013318658,7.903576e-05,0.99656874
6.124377e-05,0.95127034,0.00052958727,0.0010110736,3.7521124e-05,0.026931584,0.009704202,0.0,0.36430636,0.041091323
0.9891487,2.9802322e-07,1.603365e-05,1.7881393e-07,2.3841858e-07,0.00047048926,0.0011760592,5.1110983e-05,0.00028270483,0.034303546
1.3113022e-06,4.4703484e-07,2.861023e-05,0.99998665,0.0063812137,0.0004146397,0.007150829,0.0,0.4294227,1.1920929e-07
0.12272459,0.0,0.94358337,4.172325e-06,2.592802e-06,0.00030830503,0.0021603405,0.00053182244,0.014906734,0.00022310019
0.041398555,0.0,1.9967556e-06,8.34465e-07,0.0,0.00034824014,0.0011286736,2.5629997e-06,0.87336886,0.00841251
0.0,6.353855e-05,0.9608277,0.97411597,1.0818243e-05,0.00023311377,0.009364337,0.0,0.9990056,0.0
0.8158796,1.4901161e-07,0.0005758405,5.632639e-06,1.7881393e-07,0.00018039346,0.001635015,0.12558088,0.0007647574,0.0005417764
0.00031775236,1.1920929e-07,0.8350646,2.643466e-05,0.0001347959,7.659197e-05,0.006947905,5.477667e-05,0.9942241,4.3421984e-05
0.9817265,0.0,1.2218952e-06,3.5762787e-07,4.7683716e-07,0.0021491647,0.0012961626,1.4901161e-06,0.0029516518,0.0026085675
0.0,1.8417835e-05,5.9992075e-05,0.99998534,5.042553e-05,0.00016087294,0.016734779,5.185604e-06,0.9884568,0.0
1.129508e-05,0.0,1.6391277e-06,0.9999943,0.0,0.00032892823,0.0003580749,2.9802322e-07,1.4960766e-05,3.5762787e-07
0.0002207756,8.195639e-06,7.927418e-05,1.1503696e-05,2.682209e-07,0.00019180775,0.011697382,2.3245811e-06,0.999025,0.00010409951
0.0,0.9461421,0.0037973225,0.99993384,0.3701799,0.17317721,0.0065779984,4.172325e-07,0.05240971,2.9802322e-07
0.9796837,0.0,7.6293945e-06,1.3828278e-05,2.0861626e-07,0.002146989,0.00071176887,0.0004888773,0.00034579635,0.005262524
4.9471855e-06,0.98651326,0.0008562803,0.0011381805,5.185604e-06,0.0072122216,0.0080629885,1.1920929e-07,0.94698215,0.0010745227
0.9987469,0.0,0.0,1.4901161e-07,0.0,0.00085529685,0.00032651424,1.1920929e-07,0.00014340878,0.000113874674
0.00011473894,0.0,2.4288893e-05,4.7385693e-06,1.3709068e-06,1.2397766e-05,0.00040578842,5.990267e-06,0.999745,2.1457672e-06
9.676814e-05,2.8014183e-06,0.00055733323,2.503395e-06,5.9604645e-08,5.429983e-05,0.0015209317,5.5730343e-06,0.9955988,0.003548652
1.0430813e-06,0.99770546,0.00026759505,0.3469389,0.00034350157,0.014793992,9.75728e-05,0.0,0.5562097,0.0002439022
0.7711594,0.0,6.2584877e-07,1.1920929e-07,0.0,0.00036251545,0.00044935942,7.247925e-05,0.22370705,0.00040465593
1.1920929e-07,9.23872e-07,4.810095e-05,0.00029608607,0.00013422966,1.0,0.0017442405,9.596348e-06,0.0058647096,1.2516975e-06
0.9307867,0.0,3.7252903e-06,0.0,0.0,4.953146e-05,0.000112742186,0.0035411417,4.7951937e-05,0.0036199093
8.046627e-07,0.0,1.013279e-06,1.7285347e-06,0.0,2.8908253e-06,0.000556916,0.9948972,0.99800026,6.9737434e-06
0.0001167655,0.9833945,0.003274858,0.002251953,1.2606382e-05,0.002964139,0.0055179894,5.9604645e-07,0.9626395,0.0030620694
0.9440927,2.9802322e-07,2.0384789e-05,1.1920929e-07,2.9802322e-08,0.00026467443,0.00081166625,1.2069941e-05,3.6150217e-05,0.09402299
8.994341e-05,0.00041043758,0.0011224151,0.00022792816,1.6212463e-05,0.99962354,0.081715554,4.9322844e-05,0.2968989,0.0007918179
4.6759844e-05,0.0,3.6656857e-06,3.5643578e-05,1.7881393e-07,3.5196543e-05,0.000757277,3.6358833e-06,0.99993455,3.9041042e-06
0.00015297532,0.8573028,0.00048437715,0.19995096,1.3738871e-05,0.004964143,0.002723217,3.4570694e-06,0.6509357,0.041522175
1.1384487e-05,0.0009447038,0.004952401,0.10420239,0.12675253,0.9984972,0.037480414,0.00022286177,0.003702104,0.0007583201
1.3142824e-05,1.4901161e-07,5.1379204e-05,4.172325e-07,3.6358833e-06,0.00015562773,0.0005669594,0.00073447824,0.0032379627,0.9936043
0.030339122,3.9041042e-06,9.6052885e-05,0.90340054,2.798438e-05,0.0021397471,0.0044100583,1.758337e-06,0.2477918,0.00038346648
9.045005e-05,0.0,5.990267e-06,2.2053719e-06,0.0,5.5372715e-05,0.0017202795,7.4505806e-07,0.9998813,8.285046e-06
8.7320805e-06,0.0,7.6293945e-06,1.2427568e-05,6.556511e-07,7.1823597e-06,0.0008635819,2.5123358e-05,0.9999417,3.695488e-06
1.2069941e-05,1.1920929e-07,1.680851e-05,0.99997056,2.0861626e-07,0.0008985996,0.004424721,2.8312206e-06,0.06949526,6.556511e-06
3.2305717e-05,8.493662e-06,0.004054606,1.9073486e-05,8.6426735e-06,0.999982,0.0042295754,2.5242567e-05,0.060142606,6.4611435e-05
0.00019028783,8.34465e-07,0.99857676,2.8908253e-06,3.6001205e-05,0.0005251765,0.00282377,1.809001e-05,0.22964212,3.2812357e-05
0.5362601,2.9802322e-08,3.1352043e-05,8.940697e-07,4.61936e-06,4.6610832e-05,0.00037819147,0.02237612,0.010136306,0.035356164
0.00017476082,2.8759241e-05,3.2782555e-07,2.9802322e-07,1.1324883e-06,0.023759842,0.9480941,2.4735928e-06,0.00014135242,0.00056651235
0.9985801,0.0,8.940697e-08,2.9802322e-08,0.0,0.00020119548,0.00023469329,2.861023e-06,0.00025480986,0.00018459558
7.212162e-06,0.0,5.9604645e-08,0.9999815,2.9802322e-08,0.00100559,0.00238055,1.1920929e-07,0.0026342273,2.9802322e-08
0.00035133958,0.0,1.6480684e-05,4.172325e-07,4.7683716e-07,0.00016027689,0.86007273,9.23872e-07,0.0008124113,0.26113826
9.319186e-05,0.0,1.7881393e-07,5.4627657e-05,0.0,0.00011867285,0.0006237924,1.1622906e-06,0.9998563,1.3589859e-05
0.0036204755,2.3841858e-07,1.4603138e-06,3.734231e-05,3.5762787e-07,0.0010389388,0.0022068918,2.3841858e-07,0.9565673,0.11244205
2.682209e-07,0.570919,0.028994352,0.98172235,0.0001257658,0.00086277723,0.04378712,1.1920929e-07,0.9940893,1.1026859e-06
0.9957231,0.0,4.172325e-07,2.9802322e-08,1.4901161e-07,9.6678734e-05,0.00039109588,3.3289194e-05,0.00012362003,0.0007276535
0.9919365,0.0,7.867813e-06,2.0861626e-07,1.4901161e-07,0.0012772083,0.0031152666,3.3974648e-06,0.0009061098,0.0005393326
0.9794444,0.0,7.4505806e-07,3.5762787e-07,0.0,0.0014038086,0.0015560389,5.632639e-06,0.005827397,0.0030050278
0.00030753016,0.0,1.1920929e-06,1.0430813e-06,0.0001386106,0.00010022521,0.0027518868,2.9206276e-06,0.99882185,1.4305115e-05
0.26795658,0.0,2.2649765e-06,2.3543835e-06,7.748604e-07,0.00065618753,0.0015026331,1.7285347e-06,0.92637753,0.00085514784
3.4302473e-05,0.0,2.592802e-06,6.4074993e-06,8.940697e-08,3.9994717e-05,0.00034156442,0.99990994,0.00040385127,2.5510788e-05
0.9979205,0.0,4.7683716e-07,8.940697e-08,0.0,0.0008020997,0.00039342046,5.662441e-07,0.00025370717,9.1165304e-05
5.662441e-07,0.00029444695,0.98487055,0.013049632,0.0005913675,0.9996848,0.023636937,4.9829483e-05,0.28224194,4.4107437e-06
0.24919426,0.0,5.364418e-07,1.2308359e-05,2.8312206e-06,0.00019562244,0.0011242628,1.3053417e-05,0.82075137,0.00017252564
0.6108039,1.7881393e-07,0.0020550787,5.939603e-05,7.1823597e-06,0.0003219545,0.0032473803,2.8967857e-05,0.0026514828,0.00063464046
0.0011664033,0.0,0.00025358796,5.841255e-06,0.001088947,7.560849e-05,0.0021917224,2.0563602e-06,0.986457,0.0006776154
4.953146e-05,2.9802322e-08,1.2218952e-06,0.00010418892,0.0,5.143881e-05,0.0005135834,2.3841858e-06,0.999892,2.5093555e-05
0.0034193695,4.172325e-07,3.415346e-05,5.930662e-06,0.00015759468,0.008574009,0.8252162,7.748604e-07,0.00010386109,0.00069731474
0.0030114949,0.0,2.9802322e-07,6.556511e-07,0.0,0.000166744,0.00035130978,1.6987324e-06,0.99392366,0.0012137294
0.9864128,0.0,1.7881393e-06,6.854534e-07,1.3411045e-06,0.00012460351,0.00013405085,7.0929527e-06,6.595254e-05,0.015712798
0.9895309,0.0,1.0728836e-06,1.847744e-06,3.874302e-07,0.0009486973,0.0011070371,1.5616417e-05,0.00024136901,0.0042464733
0.002498746,0.0,2.3841858e-07,2.9802322e-08,5.9604645e-08,2.0623207e-05,0.00024104118,0.99684405,0.000246346,0.00018465519
2.6911497e-05,3.6358833e-06,2.9474497e-05,0.00014612079,1.1771917e-05,0.9999858,0.0032300055,2.2053719e-06,6.2286854e-05,3.501773e-05
0.0016782582,2.682209e-07,1.5050173e-05,7.838011e-06,5.9604645e-08,0.0003027022,0.009104222,1.9580126e-05,0.99607354,0.00021919608
0.00017213821,1.1920929e-07,2.7954578e-05,5.6624413e-06,1.9133091e-05,2.3305416e-05,0.0011197627,6.2584877e-07,0.99807346,0.00054731965
9.23872e-07,6.020069e-06,0.9851972,0.00014704466,4.5359135e-05,0.00044831634,0.016486675,1.66893e-06,0.9962137,1.3411045e-06
0.0,0.00018209219,3.516674e-06,0.9999907,2.2947788e-06,0.006961882,0.07694015,0.0,0.80913186,2.3245811e-06
8.940697e-08,0.0,0.0,0.0,0.0,0.0,2.9802322e-07,0.0,2.9802322e-08,1.0
0.07122782,8.940697e-08,0.000985682,8.967519e-05,0.00037699938,0.00021326542,0.0032854378,9.357929e-06,0.8514705,0.00044894218
0.03277409,6.2584877e-07,0.00022640824,5.8442354e-05,0.00011205673,0.0007022917,0.008501083,0.00019025803,0.07269943,0.12683329
0.97992015,0.0,3.6537647e-05,2.0861626e-07,1.7881393e-07,0.00013008714,0.00053298473,0.0020319521,8.481741e-05,0.0026195943
0.9755911,0.0,1.937151e-06,2.3841858e-07,3.2782555e-07,0.00012868643,0.000510782,9.6827745e-05,0.00054067373,0.0137604475
0.00077548623,0.3945282,0.0027144253,0.00011008978,4.2051077e-05,0.030946255,0.10756037,0.00016707182,0.11993623,0.1981006
8.264184e-05,1.4901161e-07,0.00017827749,9.813905e-05,4.7683716e-06,0.0001629293,0.0038464367,2.3335218e-05,0.10013196,0.95677626
6.854534e-07,0.0,0.9994701,0.00018796325,0.12100905,5.158782e-05,0.0027026236,1.1622906e-06,0.9941983,3.5762787e-07
0.9108262,2.3841858e-07,0.16061836,1.5497208e-06,2.3841858e-07,0.00018271804,0.0011679828,0.00050517917,0.00041651726,0.00010699034
3.874302e-07,0.0073878765,0.066483796,0.9992058,0.00016233325,0.00021111965,0.00089752674,0.0,0.9326037,2.771616e-06
7.83205e-05,0.99490535,0.001097858,0.002938062,1.6212463e-05,0.021667033,0.0060442984,8.6426735e-07,0.09729928,0.0017263591
5.3197145e-05,0.0,1.7881393e-07,0.000104665756,2.0861626e-07,0.0062449276,0.008106023,1.4305115e-06,0.9990889,0.00012007356
6.854534e-07,1.1920929e-06,0.99903536,0.0021333098,3.349781e-05,0.21651241,0.0035101175,4.7385693e-06,0.21925959,1.7881393e-07
0.84175706,0.0,2.0861626e-07,2.9802322e-08,0.0,0.00011944771,0.00018009543,8.177757e-05,0.16493899,1.6212463e-05
0.55815506,0.0,1.4990568e-05,0.0,0.0,1.1622906e-06,8.714199e-05,0.3532118,0.00040143728,0.0005017221
0.9873955,0.0,2.9802322e-08,0.0,0.0,3.3974648e-06,8.0406666e-05,0.00051513314,1.4007092e-06,1.3560057e-05
1.4901161e-07,5.9604645e-08,8.204579e-05,3.963709e-06,1.4007092e-06,1.0,0.0008299649,3.784895e-06,0.8632537,1.013279e-05
0.47118706,0.0,1.1324883e-06,4.8577785e-06,5.662441e-07,0.00021871924,0.0004813671,4.9471855e-06,0.8226923,0.000130862
0.002489984,0.0,1.7285347e-06,2.771616e-06,0.0,5.9068203e-05,0.00030305982,4.7951937e-05,0.9712309,0.0052798986
0.045787424,0.0,7.8350306e-05,3.784895e-06,2.3841858e-06,0.0017045736,0.0022583306,3.066659e-05,0.94697165,0.004195094
0.0,1.3709068e-06,0.000446707,9.357929e-06,1.9103289e-05,1.0,0.001407057,1.3113022e-06,0.5034275,2.771616e-06
6.556511e-07,0.01236105,0.020470202,0.018039107,0.00027054548,0.7441287,0.60071987,1.7017126e-05,0.0009909272,0.00260064
0.84431195,1.2218952e-06,0.00020885468,2.4408102e-05,1.5497208e-06,0.00026372075,0.0015386343,0.0018084943,0.00041684508,0.26656598
5.3435564e-05,0.0,2.9414892e-05,1.9609928e-05,7.927418e-06,0.00019988418,0.0006901324,0.9979831,0.0011655986,0.0036271513
1.4901161e-06,0.0,7.659197e-06,0.000106304884,0.9989748,3.3974648e-06,0.0008844733,9.000301e-05,0.013443977,0.0005464554
8.493662e-06,0.0044400096,0.0044492483,4.529953e-06,1.3530254e-05,0.8872506,0.3196116,1.8149614e-05,0.17012882,0.01545313
0.99222744,0.0,1.7881393e-07,1.0728836e-06,2.682209e-07,0.0006892681,0.0005351603,2.682209e-07,0.003747642,0.00023022294
3.8444996e-06,0.0,6.556511e-07,0.9999757,1.0728836e-06,0.00041350722,0.00066185,1.1920929e-07,0.037138283,5.9604645e-08
0.00030604005,3.2782555e-07,0.0024060905,1.4483929e-05,0.0011977553,0.00011461973,0.0018993914,4.6104193e-05,0.9759716,0.011693507
0.0051575303,4.8577785e-06,0.9699385,0.00015565753,0.0017079413,0.001501739,0.015822828,0.00680393,0.2500422,8.317828e-05
0.00040081143,8.255243e-06,5.543232e-06,7.748604e-07,1.4305115e-06,0.00063437223,0.9915135,1.7911196e-05,0.0023019016,0.008957535
0.44190934,8.940697e-06,1.13248825e-05,3.990531e-05,1.1622906e-06,0.0031938255,0.00394544,2.0861626e-07,0.5646963,0.021484196
1.5199184e-05,0.0009950995,0.00999397,0.0008995533,0.0001835823,0.9737435,0.4872106,0.000256598,0.016327828,0.0020753741
5.3942204e-06,5.3346157e-06,1.8388033e-05,7.870793e-05,3.0368567e-05,0.9998499,0.24469346,7.033348e-06,0.017309874,3.322959e-05
0.9908115,0.0,9.536743e-07,2.8014183e-06,2.0861626e-07,0.0010048151,0.00049859285,9.62615e-06,0.00037959218,0.0028148592
0.0005354285,1.0311604e-05,0.0005283952,1.0877848e-05,6.854534e-07,7.9602e-05,0.0011046529,7.1525574e-07,0.0060700774,0.9955903
2.9027462e-05,5.185604e-06,0.00016990304,0.0003245473,4.6163797e-05,0.9997341,0.025883287,1.7344952e-05,0.42129257,0.00017765164
0.99729514,0.0,1.4901161e-07,2.9802322e-08,5.9604645e-08,0.00021877885,0.0002965331,0.00014081597,4.3809414e-05,0.00025367737
2.3841858e-07,2.0861626e-07,0.9973419,0.9995767,0.00036093593,0.00020596385,0.001678437,5.9604645e-08,0.07393876,8.940697e-08
0.22697821,0.0,3.3080578e-06,8.6426735e-07,0.0,0.0003722608,0.00042644143,1.257658e-05,0.9058711,0.00063574314
0.13085872,0.0,7.8082085e-06,2.682209e-07,0.0,4.7534704e-05,0.0006045997,0.9712604,0.00021350384,0.0010118484
0.0012228489,0.0,3.516674e-06,1.1026859e-06,8.940697e-08,1.847744e-05,0.00021222234,0.034722418,0.0003912151,0.70838535
0.33365908,0.0,8.583069e-06,4.5895576e-06,5.364418e-07,0.0018655658,0.0021227598,5.930662e-06,0.70410234,0.0013046265
0.97759396,5.543232e-06,0.000100284815,7.1525574e-07,7.748604e-07,0.0011023581,0.005463332,4.0352345e-05,0.00014385581,0.018760413
0.5731243,2.0861626e-07,0.0001693666,4.4941902e-05,3.3080578e-06,0.0033554733,0.0022967756,2.2917986e-05,0.018149734,0.28463352
0.00036919117,8.940697e-08,0.00010982156,7.8737736e-05,0.99829113,0.00017631054,0.0028182268,4.917383e-06,0.07226434,0.012288988
0.9973115,0.0,8.046627e-07,8.940697e-08,2.9802322e-08,0.00011989474,0.00020754337,1.4603138e-05,1.0609627e-05,0.0008306205
0.00016006827,0.028919607,0.0027738214,0.00071528554,6.264448e-05,0.0012248456,0.33541244,6.67572e-06,0.9067861,0.0036108792
0.9159371,4.172325e-07,7.748604e-07,5.453825e-06,1.1920929e-07,0.00040203333,0.00068846345,1.1920929e-07,0.29988852,7.709861e-05
7.405877e-05,0.0,2.3841858e-07,4.172325e-07,8.940697e-08,0.00016435981,0.0037055612,0.0,0.99775213,0.0017067194
3.5762787e-07,0.95466036,0.0040623546,0.99986875,0.00036254525,0.013806939,0.085793495,2.3841858e-07,0.9279382,6.2584877e-06
0.9962013,0.0,3.695488e-06,5.9604645e-08,0.0,0.0006762147,0.00038149953,7.2062016e-05,8.2075596e-05,0.0004311204
0.69582844,2.9802322e-08,0.00012129545,0.0,8.940697e-08,2.899766e-05,0.00032499433,0.0035857856,8.314848e-06,0.35387263
0.99590635,0.0,2.9802322e-08,0.0,0.0,5.915761e-05,0.00021195412,2.1874905e-05,0.00023213029,3.758073e-05
0.9043369,0.0,3.8146973e-06,1.8656254e-05,3.874302e-07,0.0018144846,0.0024740398,2.6583672e-05,0.013902605,0.025123388
0.12019262,5.9604645e-08,4.172325e-07,5.662441e-07,2.8014183e-06,0.0007516742,0.003959626,2.026558e-06,0.16169757,0.3448221
0.9827686,8.940697e-08,0.00013288856,1.937151e-06,1.1920929e-07,0.0016915798,0.0073182583,8.7976456e-05,0.0009534657,0.0020472407
0.99693185,8.940697e-08,9.23872e-07,8.940697e-08,0.0,0.00026592612,5.6535006e-05,1.7881393e-06,0.00077047944,0.00020819902
1.8775463e-06,0.0,8.940697e-08,0.0,0.0,5.9604645e-08,0.000121325254,0.0,1.0281801e-05,0.9999112
9.199977e-05,0.0,0.0,0.0,0.0,5.9604645e-08,1.937151e-06,0.0,6.380677e-05,0.9999981
9.834766e-07,0.9954481,4.041195e-05,0.8916175,5.659461e-05,0.026307285,0.0044162273,1.7881393e-07,0.004989356,0.00033825636
9.9509954e-05,0.9972755,0.002369821,0.00014734268,2.5331974e-05,0.0038870275,0.00080525875,1.013279e-06,0.01185292,0.0027605593
5.3346157e-06,8.940697e-08,0.0018145144,7.504225e-05,0.9983047,0.00016337633,0.00062277913,6.8992376e-05,0.075167745,0.00011768937
0.9969039,0.0,5.9604645e-08,0.0,0.0,0.0003286004,0.00039294362,1.3411045e-05,6.8724155e-05,0.0001013577
1.0877848e-05,5.9604645e-08,1.5109777e-05,0.0005117953,3.874302e-07,0.0013213158,0.04749331,8.6426735e-07,0.9992737,0.00016316772
0.99751055,0.0,1.1026859e-06,4.172325e-07,1.1920929e-07,0.00083583593,0.0015528202,1.2218952e-06,0.00013968349,0.00019320846
6.553531e-05,4.172325e-07,0.00016483665,0.9999777,2.4020672e-05,0.00084397197,0.0026064217,3.9041042e-06,0.00014388561,1.3202429e-05
2.0861626e-07,0.0,0.99843514,0.00014087558,0.9684644,2.1010637e-05,0.0017079413,3.516674e-06,0.99853706,2.0861626e-07
5.9098005e-05,6.151199e-05,0.00784567,0.00013196468,0.00022646785,0.0014882386,0.008804023,5.4836273e-06,0.0089407265,0.7996026
9.199977e-05,0.0,0.0,0.0,0.0,5.9604645e-08,1.937151e-06,0.0,6.380677e-05,0.9999981
3.7401915e-05,1.4901161e-07,2.631545e-05,0.99999475,4.4703484e-07,0.00038522482,0.0012744367,5.662441e-07,6.4611435e-05,1.7881393e-07
0.9825475,0.0,1.6093254e-06,1.1026859e-06,6.2584877e-07,0.00438264,0.002976805,0.0005310178,0.00018528104,0.0031953156
0.05766228,0.0,3.7550926e-05,2.1457672e-06,4.172325e-07,0.00032272935,0.00067943335,4.2140484e-05,0.98400587,0.00023323298
0.99743354,0.0,2.3841858e-07,0.0,0.0,0.00034222007,0.00031280518,2.3424625e-05,2.1785498e-05,0.0001398623
0.9767562,0.0,5.3048134e-06,3.4570694e-06,2.9802322e-08,0.0025473833,0.0011532605,5.5730343e-06,0.00013154745,0.0015763938
0.004943639,1.9013882e-05,5.185604e-06,3.7252903e-06,7.748604e-07,0.0018778443,0.990267,0.00013408065,0.0068058968,0.00076436996
0.012573183,2.9802322e-08,2.0742416e-05,0.0044931173,0.019519418,0.0005464256,0.0012922287,1.9073486e-06,0.6350522,0.0033183098
0.009546608,0.0,1.4901161e-07,1.5497208e-06,2.0861626e-07,0.00015586615,0.0016026199,3.5762787e-07,0.9975184,1.12354755e-05
0.9657961,0.0,7.748604e-07,2.3841858e-07,8.940697e-08,7.274747e-05,0.0001654625,0.021223873,0.0003079474,0.00044953823
0.0,0.002436936,0.03385791,0.999998,5.6803226e-05,0.00041860342,0.0029338002,0.0,0.22284138,1.7881393e-06
0.0,0.00059622526,0.00014999509,0.99999464,8.517504e-05,0.001065284,0.18380883,5.9604645e-08,0.979958,1.7881393e-07
3.874302e-07,4.7683716e-07,0.9981146,0.99675167,1.8775463e-05,0.0002155304,0.0010534227,4.172325e-07,0.00086292624,4.0888786e-05
0.73905647,5.9604645e-08,0.00031116605,1.1622906e-06,2.3841858e-06,0.0001975894,0.0008749962,0.0010691583,0.06567466,0.0033732355
0.011787057,0.0,1.2516975e-06,6.5267086e-06,0.0,0.0014715791,0.0014562607,1.3053417e-05,0.98826545,0.0004708767
0.0023272336,1.8268824e-05,1.3202429e-05,6.02901e-05,6.854534e-07,0.0016006231,0.019633204,7.748604e-07,0.9883226,0.0070156455
0.014596313,5.9604645e-08,6.5267086e-06,2.026558e-05,2.0861626e-07,0.00022098422,0.0023295581,1.1324883e-06,0.9923643,0.0005989969
0.9878639,0.0,2.2053719e-06,5.364418e-07,1.3411045e-06,0.00031137466,0.00048595667,2.759695e-05,0.00014844537,0.00092592835
0.0,0.0011463165,0.00012469292,0.9999621,3.6388636e-05,0.0012498498,0.023413122,2.9802322e-08,0.9833769,1.4901161e-06
8.940697e-08,0.00020590425,0.9311031,4.762411e-05,3.5971403e-05,0.0002914369,0.78185976,1.168251e-05,0.99664956,4.3213367e-06
0.12307295,0.0,1.1920929e-07,2.0861626e-07,0.0,3.4481287e-05,0.0003939271,1.5199184e-06,0.9582597,1.7017126e-05
0.9962453,0.0,7.1525574e-07,5.9604645e-08,1.4901161e-07,0.00080791116,0.00090157986,3.3676624e-06,2.9355288e-05,0.0007201433
8.940697e-07,1.0728836e-06,1.9550323e-05,0.99999523,0.00011280179,0.00039225817,0.004160434,0.0,0.094982,2.95043e-06
1.1920929e-07,3.5762787e-07,0.004337251,0.99999654,0.020140857,0.00031888485,0.0022188723,2.9802322e-08,0.0009815395,8.940697e-08
2.7805567e-05,0.99637604,0.00020849705,2.5182962e-05,7.7188015e-06,0.003321737,0.001408279,1.7881393e-07,0.0022494197,0.0066066384
0.016487867,0.0,2.1457672e-06,0.0,1.1920929e-07,5.3942204e-06,0.00043144822,4.053116e-06,0.99442303,3.516674e-06
3.3676624e-06,0.0074750483,1.8626451e-05,0.013124973,1.7791986e-05,0.052949756,0.8314256,2.3841858e-07,0.39444095,0.012738258
0.0057432353,0.96711385,0.00021854043,2.4229288e-05,3.1590462e-06,0.0065301955,0.0010141432,0.0,0.0098876655,0.002068162
0.99513674,0.0,2.0861626e-07,2.9802322e-07,0.0,0.0007453561,0.0006350577,1.5795231e-06,0.002272725,0.00030717254
9.199977e-05,0.0,0.0,0.0,0.0,5.9604645e-08,1.937151e-06,0.0,6.380677e-05,0.9999981
0.009462833,8.940697e-08,1.591444e-05,2.1189451e-05,0.0,3.311038e-05,0.00028255582,1.1622906e-06,0.015720427,0.971598
0.000815928,0.0,0.0001090765,1.5288591e-05,8.940697e-08,0.0004553795,0.0028018355,0.0021603405,0.9967019,0.00055736303
1.8298626e-05,8.940697e-08,0.00017952919,2.9593706e-05,0.04900384,0.0006711781,0.002378881,5.096197e-06,0.0040521324,0.84258115
0.9990665,0.0,2.3841858e-07,0.0,0.0,0.0003964901,0.00023439527,1.1950731e-05,2.2411346e-05,3.7133694e-05
0.99857265,0.0,2.9802322e-07,0.0,0.0,0.00015771389,0.00031986833,1.7166138e-05,1.3679266e-05,0.00019231439
0.00031638145,5.9604645e-08,1.7881393e-07,5.90086e-06,0.0,0.00016894937,0.0006377697,1.3411045e-06,0.9985796,0.000513345
0.0008200109,0.1130043,0.02543518,3.0398369e-05,5.1528215e-05,0.0016947389,0.011894941,2.115965e-06,0.0025993288,0.5785746
0.00010755658,0.0,1.1712313e-05,4.7683716e-07,0.0,0.00038138032,0.011191785,0.00030833483,0.93819034,0.018301815
2.169609e-05,0.035939783,0.007900745,0.07098067,0.02208674,0.9998933,0.10445595,0.0003580153,0.45147294,9.5546246e-05
0.00010752678,7.748604e-07,0.0017796457,3.1888485e-06,1.2516975e-06,0.67331314,0.017448932,8.285046e-06,0.089900285,0.009288043
0.004728794,0.0,2.682209e-07,3.4868717e-06,1.1920929e-07,0.0002026856,0.00078198314,8.34465e-07,0.9979701,6.4611435e-05
0.9087823,9.030104e-06,0.00065112114,3.5762787e-07,1.7285347e-06,0.00041767955,0.0007867813,8.234382e-05,0.00030383468,0.21031496
0.007188499,1.4901161e-07,0.9977858,3.3974648e-06,7.4505806e-07,9.021163e-05,0.001265049,7.048249e-05,0.00014951825,2.6613474e-05
0.98669255,0.0,1.9967556e-06,3.8444996e-06,0.0,0.0022609532,0.00067830086,8.6426735e-07,0.0020207465,0.00017172098
0.37883765,2.9802322e-08,2.682209e-07,2.3841858e-07,0.0,4.6670437e-05,0.00028148293,0.002541542,0.19758138,0.005254805
3.1590462e-06,0.9955144,0.0005646646,0.0039218664,0.0014479458,0.015430868,0.0011514723,8.940697e-08,0.9087477,0.00024044514
3.129244e-05,0.0,1.1324883e-06,0.9999935,5.9604645e-08,0.00018283725,0.0005272925,1.4603138e-06,4.8190355e-05,9.834766e-07
2.682209e-06,0.0018390417,0.38749582,0.1450809,0.01032564,0.00011613965,0.005229324,5.662441e-07,0.99613917,5.2452087e-06
0.99890924,0.0,6.854534e-07,2.9802322e-08,0.0,0.00020894408,0.00011661649,6.854534e-07,1.6331673e-05,4.9442053e-05
0.00086924434,1.4901161e-07,0.00058710575,1.4424324e-05,2.682209e-07,0.99997425,0.003666073,1.2487173e-05,0.014358312,7.751584e-05
0.99811,0.0,2.0861626e-07,0.0,0.0,0.0002283454,0.0006478429,1.8119812e-05,4.506111e-05,0.00018972158
5.662441e-07,2.9802322e-07,5.8859587e-05,2.1189451e-05,4.172325e-07,0.9999691,0.0028831363,1.0281801e-05,0.9753258,1.0550022e-05
2.7120113e-06,1.3291836e-05,6.246567e-05,0.99999946,2.3812056e-05,0.0016647279,0.003831774,5.9604645e-08,0.0035513043,5.662441e-07
2.0861626e-07,0.9841094,0.0020298064,0.99884355,0.00043985248,0.0057124496,0.0008046031,0.0,0.82626975,8.404255e-06
2.4616718e-05,1.9669533e-06,9.5278025e-05,1.3440847e-05,1.4066696e-05,0.99999994,0.0040448606,8.940697e-06,0.0113141835,5.722046e-06
0.0010039508,0.0,9.23872e-07,3.2782555e-07,2.682209e-07,1.4960766e-05,0.00011396408,5.2452087e-06,0.9995431,3.5762787e-07
0.010319054,0.0,5.9604645e-08,5.9604645e-08,2.9802322e-08,5.6028366e-06,7.18832e-05,1.1354685e-05,0.9845277,0.0002374053
0.010388792,0.0,2.7358532e-05,6.7055225e-06,0.08755803,0.00015854836,0.0016104281,0.00019723177,0.80431265,0.00024530292
0.0012433529,2.9802322e-07,0.0068737864,7.95722e-06,4.2021275e-06,2.7805567e-05,0.0016935468,2.6583672e-05,0.99685967,3.2305717e-05
0.93173647,0.0,6.2286854e-06,0.0,0.0,0.0026013851,0.00042039156,0.00067320466,0.0012531877,0.00036674738
0.86259186,5.9604645e-08,1.0222197e-05,3.3974648e-06,8.940697e-08,0.11426321,0.0038291514,2.0235777e-05,0.0006929338,0.00096160173
0.0038473606,1.7285347e-06,3.951788e-05,6.598234e-05,4.1127205e-06,0.0006738603,0.04084131,0.879259,0.041265458,0.024340183
0.9955685,0.0,2.0861626e-07,8.940697e-08,2.9802322e-08,0.00013142824,0.00020638108,2.6524067e-06,9.828806e-05,0.0049394667
0.00038984418,0.0,0.00052317977,5.00679e-06,1.66893e-06,0.000256747,0.0019095838,3.0845404e-05,0.99801564,0.00028592348
4.5895576e-06,0.99943393,7.981062e-05,0.024092704,0.000106185675,0.0077778697,0.00070643425,0.0,0.92774105,9.354949e-05
0.0,8.34465e-07,0.99264455,0.9999502,0.98463607,0.00016462803,0.002409637,0.0,3.170967e-05,0.0
7.3611736e-06,0.9986339,0.00071421266,5.1110983e-05,3.8444996e-06,0.017542005,0.0011856854,8.940697e-08,0.010705739,0.0033341646
0.9947871,0.0,1.5497208e-06,1.1920929e-07,5.9604645e-08,0.00076040626,0.00052168965,1.1205673e-05,0.0013357699,0.0006621182
0.00073197484,3.015995e-05,4.976988e-05,3.054738e-05,5.9604645e-07,0.0008355081,0.0034963787,1.7285347e-06,0.9929171,0.01038599
0.05488506,0.0,6.854534e-07,3.5762787e-07,0.0,0.0006625056,0.0006432831,8.940697e-08,0.9844012,0.0003208816
0.00012689829,6.5863132e-06,1.0728836e-06,1.1593103e-05,6.2584877e-06,0.009052068,0.9969493,2.9802322e-08,0.0022304654,0.0020569265
0.0046563447,0.0,1.013279e-06,1.5497208e-06,1.1920929e-07,0.00014913082,0.00090688467,9.712577e-05,0.9953401,8.7201595e-05
9.199977e-05,5.9604645e-08,0.00027939677,2.026558e-06,1.3649464e-05,3.20971e-05,0.0004517436,2.1785498e-05,0.040606976,0.96078897
0.998199,0.0,1.7881393e-07,1.7881393e-07,0.0,0.00043654442,0.00064620376,2.026558e-06,0.00012212992,0.00011637807
0.1435706,1.4901161e-07,5.8442354e-05,1.32620335e-05,5.275011e-06,0.0007775426,0.0024516284,6.854534e-07,0.008030951,0.87032473
0.00024664402,0.0,0.92582107,6.5267086e-06,0.013220429,0.00050619245,0.0021752417,7.927418e-06,0.0060308576,9.1314316e-05
0.0,8.0257654e-05,7.599592e-06,0.999999,8.6426735e-06,0.0013986528,0.5517927,5.9604645e-08,6.479025e-05,1.7881393e-07
0.99231803,0.0,8.761883e-06,1.847744e-06,2.9802322e-08,0.0011217296,0.00077950954,4.0262938e-05,9.813905e-05,0.00030505657
0.6685612,2.0861626e-07,0.00018852949,1.1622906e-06,1.7881393e-07,0.00019848347,0.0005376637,0.0036072433,0.00043827295,0.4801298
4.172325e-07,0.00028538704,0.0008201897,0.20794815,0.0012605786,0.9999999,0.0053454638,3.874302e-06,0.0070849657,2.1457672e-06
0.0023628771,1.4901161e-07,2.3245811e-05,3.3974648e-06,9.23872e-07,0.0010204911,0.007135123,1.052022e-05,0.00044324994,0.8858725
3.0100346e-06,0.9927263,0.0020602345,0.0010425746,6.568432e-05,0.9536684,0.0002220869,3.3676624e-06,0.06855056,6.1273575e-05
0.83121127,0.0,1.3589859e-05,6.556511e-07,6.0498714e-06,0.00013628602,0.00050601363,0.037552625,3.3050776e-05,0.07319108
0.9978641,0.0,1.7881393e-07,2.0861626e-07,0.0,0.00034546852,0.00029063225,6.943941e-06,6.815791e-05,0.00016251206
0.63929737,0.0,2.3841858e-07,5.662441e-07,5.9604645e-08,7.042289e-05,0.00022283196,1.3679266e-05,0.370996,0.0009574592
0.24437758,1.5288591e-05,0.26078215,8.5532665e-06,3.2782555e-07,0.0012157559,0.0037607253,0.0173617,0.0066327155,0.07089147
3.7163496e-05,8.940697e-08,2.9802322e-08,4.440546e-06,0.0,7.05719e-05,0.0006596744,0.0,0.9991454,6.735325e-05
0.99742734,0.0,3.2782555e-07,1.7881393e-07,2.0861626e-07,0.00021195412,0.00033473969,1.8686056e-05,2.014637e-05,0.00068590045
0.0008302033,0.0,8.940697e-08,8.940697e-08,0.0,4.9471855e-06,8.735061e-05,8.940697e-07,0.9995686,4.440546e-06
0.006181717,0.0,2.3245811e-06,5.9604645e-08,3.5762787e-07,5.310774e-05,0.00027275085,8.711219e-05,0.9958954,3.120303e-05
0.000315696,0.0,1.3709068e-06,1.9103289e-05,1.1026859e-06,0.00012600422,0.0010675788,8.761883e-06,0.99963164,1.2636185e-05
9.328127e-06,5.9604645e-07,3.2812357e-05,6.377697e-06,1.1622906e-06,0.9999994,0.0027103424,6.1690807e-06,0.014975905,2.9325485e-05
0.00058057904,6.648898e-05,0.0010079741,9.834766e-06,5.155802e-06,0.0013102591,0.99235356,6.854534e-07,4.2021275e-05,2.554059e-05
9.357929e-06,0.9993508,7.584691e-05,0.0077928305,8.34465e-07,0.0078730285,0.00020954013,0.0,0.292346,0.0012920201
0.0006477535,0.82445127,0.00062534213,6.109476e-05,3.0010939e-05,0.005124271,0.013658285,1.1622906e-06,0.0029020011,0.5305742
7.7188015e-06,0.86237663,0.0029167533,6.017089e-05,8.940697e-08,0.0007485151,0.006231874,2.9802322e-07,0.9993519,3.889203e-05
0.08943677,0.0,5.9604645e-08,0.0,0.0,1.3411045e-06,2.5868416e-05,0.96349704,3.644824e-05,3.9845705e-05
0.0,1.4901161e-07,7.122755e-06,0.9999985,0.0049675405,7.736683e-05,0.001306802,5.9604645e-08,0.03924322,1.7881393e-07
1.5199184e-06,2.9802322e-07,4.827976e-06,1.1026859e-06,2.0861626e-07,0.0006200671,0.97224915,9.983778e-06,0.0040133,0.0076873004
0.99776965,0.0,2.0861626e-07,0.0,2.9802322e-08,6.0081482e-05,0.0001989901,1.1622906e-06,7.587671e-05,6.389618e-05
0.99504393,0.0,1.1831522e-05,1.7881393e-07,0.0,0.0007734895,0.0013535619,6.8575144e-05,2.4527311e-05,3.4809113e-05
5.0395727e-05,0.99224246,0.00080758333,3.9458275e-05,1.4901161e-05,0.0027089417,0.00067201257,0.0,0.70647776,0.006226212
