0,1,2,3,4,5,6,7,8,9
0.95740783,5.364418e-07,0.00016415119,0.00029155612,0.00017756224,0.011383116,0.0022234619,6.610155e-05,0.016680479,0.005063921
0.79545915,5.9604645e-08,9.062886e-05,0.00013747811,2.6226044e-06,0.004247248,0.0032303333,0.11614442,0.00022679567,0.053757608
9.664893e-05,3.2782555e-07,0.00050115585,0.0010210872,0.94350076,0.9994637,0.0017768443,1.9401312e-05,9.3102455e-05,3.7252903e-06
0.0,0.00046244264,9.715557e-06,0.99994856,1.7881393e-07,0.0056192577,0.9998895,0.0,3.2186508e-06,2.682209e-07
0.003502518,1.4901161e-07,8.9138746e-05,0.9997877,6.2674284e-05,0.009903312,0.0046878755,1.9490719e-05,0.0006842017,2.8848648e-05
0.99273145,0.0,2.9087067e-05,5.093217e-05,1.0728836e-05,0.0009908676,0.00024241209,0.02018252,5.990267e-06,0.00041541457
0.018867522,8.34465e-07,3.5613775e-05,0.0009100139,0.0001744628,0.002506107,0.005868107,0.00031074882,0.979576,0.0013108253
2.6524067e-06,6.556511e-07,0.00011733174,0.9999876,0.9852597,0.0029503703,0.0015775561,7.748604e-07,0.0021701455,2.0861626e-07
0.00012022257,4.4107437e-06,0.0014389157,0.08995104,6.246567e-05,0.0010685623,0.0054409206,0.0001411736,0.9995929,0.00014838576
2.8908253e-06,6.3598156e-05,3.1471252e-05,0.0001655519,0.0,0.00802213,0.9999273,4.0382147e-05,0.0021766424,0.00031921268
0.0040062666,1.6093254e-06,0.60681427,0.00016665459,0.00016099215,0.0017615855,0.001750797,0.00019541383,0.9944253,5.3077936e-05
0.00522545,1.1920929e-07,0.00020357966,5.1170588e-05,0.000579685,0.00035491586,0.0024282634,0.00017744303,0.99880725,2.3633242e-05
9.23872e-07,0.35768914,0.0017290413,0.9980917,2.1219254e-05,0.007189393,0.015907139,5.9604645e-08,0.8793838,0.0003349483
7.1555376e-05,0.9971186,0.01469481,0.0032835007,5.0902367e-05,0.010517091,0.01658979,5.4329634e-05,0.12710804,0.010246366
0.06451213,0.0,4.1782856e-05,4.4554472e-05,5.4568052e-05,0.0003273785,0.0017716289,0.0014388859,0.9841645,0.00010097027
0.0044479966,0.297105,0.0035090744,0.00033900142,4.389882e-05,0.013107181,0.12492558,0.00032928586,0.23649043,0.086503714
0.00015053153,1.642108e-05,0.00048321486,0.99945,0.0012378693,0.014136523,0.007279694,2.9802322e-06,0.4064303,2.4020672e-05
0.99679095,8.940697e-08,0.00011125207,0.000118911266,6.943941e-06,0.0034287572,0.0004287958,8.139014e-05,0.0013338625,0.00072717667
0.0,4.2945147e-05,0.98538107,0.000102460384,0.052312285,0.09996462,0.9951064,0.00040379167,0.69745755,4.0233135e-06
1.4841557e-05,0.00013518333,0.00017136335,0.00011917949,6.5863132e-06,0.0013481379,0.7754823,0.0063420534,0.98194706,0.00012752414
0.99710953,8.940697e-08,6.920099e-05,1.7046928e-05,3.6358833e-06,0.003210485,0.0015145838,0.0016192198,0.00010111928,0.005928308
0.2629905,1.2755394e-05,0.76295257,0.23754191,7.3611736e-06,0.0018112957,0.0021208525,0.0006417334,0.00021144748,0.0027944446
0.9981929,5.9604645e-08,0.00012516975,4.172325e-05,2.9802322e-06,0.0022859573,0.0010769367,0.00029993057,0.00021532178,0.0015309751
0.015743107,0.0008780658,0.025552541,0.0002885759,3.1471252e-05,0.0043176413,0.0039438903,0.00022748113,0.96889144,0.031419605
0.014122754,3.963709e-06,0.00020954013,0.00031006336,0.0003477633,0.003870517,0.008835852,0.000608623,0.993111,0.00095272064
7.4505806e-07,0.00018113852,0.024905056,2.6673079e-05,9.0539455e-05,0.985334,0.059455425,6.020069e-05,0.0077542663,0.0010972023
2.9802322e-08,0.00023448467,5.9455633e-05,9.655952e-06,0.0,0.021141678,0.9996805,0.0049453974,1.0788441e-05,0.00010076165
0.9417403,0.0,0.00014540553,5.6028366e-06,2.0861626e-07,0.0026193857,0.00069746375,0.4181972,2.6792288e-05,0.00057309866
0.013107419,2.9802322e-07,0.00011834502,6.1690807e-06,3.5762787e-07,0.0022802353,0.0058035553,0.9869386,0.024905652,0.0016763806
0.00012338161,0.8895333,0.00755617,0.19935331,5.5104494e-05,0.007279098,0.016321272,3.606081e-06,0.92954624,0.102414995
0.00048482418,0.0010049045,2.425909e-05,6.92606e-05,1.0430813e-06,0.019736975,0.9684757,0.00023284554,0.0128109455,0.045866877
5.9604645e-08,0.00047442317,0.00013256073,2.4110079e-05,2.7418137e-06,0.026557267,0.99974036,5.7816505e-06,0.14288345,2.2470951e-05
0.0804269,5.4836273e-06,0.0008355379,0.00022244453,3.516674e-06,0.03134671,0.98524487,7.164478e-05,0.000115543604,0.00072839856
0.0003823936,1.4603138e-06,0.0006224513,0.99964905,0.00030595064,0.0051665604,0.010119975,5.927682e-05,0.00018808246,0.00020965934
0.8737346,7.748604e-07,0.00076946616,3.5136938e-05,3.85046e-05,0.0073061287,0.0035999417,0.00031536818,0.37994558,0.0018132925
0.9994918,0.0,0.00018364191,1.0699034e-05,1.4901161e-07,0.0010782778,0.00014477968,3.9577484e-05,4.643202e-05,0.00017413497
0.9116607,5.066395e-07,0.000102460384,2.4467707e-05,4.6789646e-06,0.0075371563,0.0020660758,5.5372715e-05,0.23455206,0.011293232
0.995609,2.9802322e-07,0.00031164289,8.431077e-05,9.268522e-06,0.0065428913,0.0029202998,0.0006149113,0.0003644824,0.0044957697
0.99214065,4.172325e-07,0.00016742945,7.7068806e-05,7.599592e-06,0.015314043,0.005171299,0.00050753355,0.0004836917,0.008143246
0.0012364984,4.172325e-07,8.967519e-05,0.00015041232,1.0758638e-05,0.0018506944,0.0050314963,0.002598375,0.9989307,8.460879e-05
0.00010406971,1.7523766e-05,0.951061,4.3213367e-06,2.4676323e-05,0.00022831559,0.0022073388,0.000300169,0.93591917,6.252527e-05
0.7238337,1.0579824e-05,0.00049751997,0.00019204617,4.5269728e-05,0.0075102746,0.004314333,8.636713e-05,0.4042178,0.010089308
5.9604645e-08,4.4703484e-06,0.0022565424,5.3346157e-06,9.62913e-05,0.9999245,0.7211171,5.4955482e-05,0.1981526,4.2915344e-06
5.248189e-05,0.9969148,0.004254192,0.004910916,8.4102154e-05,0.012114167,0.0047507584,3.427267e-05,0.97239304,0.000890404
0.0008895695,4.4703484e-07,6.133318e-05,5.325675e-05,8.755922e-05,0.0005323589,0.0028792918,6.2942505e-05,0.99902153,0.00017908216
0.005578667,1.4901161e-07,1.2904406e-05,7.748604e-07,0.0,0.001671344,0.0042205155,0.9986737,0.0014249086,0.000803113
0.23601091,4.9233437e-05,0.023523927,0.00012224913,0.0023955703,0.002708763,0.0016418993,3.8951635e-05,0.9117875,0.003115505
0.06724772,2.7626753e-05,0.0014689863,0.00019881129,4.8428774e-05,0.0065778494,0.010593176,0.0010353029,0.62899905,0.25725403
6.1690807e-06,0.9871235,0.033147395,0.0028663874,0.000110566616,0.021615982,0.0063842535,4.6759844e-05,0.4595317,0.001834929
0.99942386,0.0,1.54078e-05,5.2452087e-06,1.7881393e-07,0.0013526678,7.57575e-05,4.6521425e-05,0.00038713217,6.887317e-05
0.0021282732,4.7683716e-07,0.00042915344,5.6773424e-05,1.4722347e-05,0.11347374,0.041143537,0.0033991039,0.0012868941,0.30144566
3.2156706e-05,0.99861705,0.0028877854,0.00038519502,6.93202e-05,0.025859118,0.008247405,3.966689e-05,0.022483796,0.0009765625
0.0,0.0021023452,0.0008177757,0.0002462268,0.00014856458,0.9999999,0.0031211972,7.426739e-05,0.656078,1.7881393e-05
0.47744974,8.940697e-07,2.6106834e-05,5.7071447e-05,1.847744e-06,0.013638288,0.010335624,0.021074414,0.68491,0.0011843443
0.9769956,6.3180923e-06,0.0036346912,8.493662e-05,1.630187e-05,0.0077793,0.0017579496,0.00010043383,0.016545296,0.0077818036
6.1541796e-05,0.9779848,0.0033645928,0.0028081834,0.00010553002,0.033487886,0.05549106,9.894371e-06,0.09287515,0.024161965
0.8226986,8.404255e-06,5.5998564e-05,1.4215708e-05,7.748604e-07,0.00421834,0.00090029836,8.2701445e-05,0.11781362,0.07086918
2.9802322e-07,0.999908,0.00061666965,0.0009274781,0.0023890734,0.004265696,0.00045379996,0.0019299984,0.0027572215,0.003908634
0.8130523,4.8577785e-06,0.00044599175,2.4080276e-05,9.894371e-06,0.015135944,0.0107628405,0.07152617,0.0068612695,0.033083797
0.00065520406,0.99671936,0.0034962893,0.0008369982,1.7434359e-05,0.010977089,0.0039596856,2.503395e-06,0.116387755,0.02240175
0.99721664,0.0,4.5359135e-05,7.545948e-05,1.0728836e-06,0.00699687,0.0005802214,0.00047904253,0.0004272759,0.000106304884
0.025276124,4.8577785e-06,0.00010839105,2.0563602e-05,5.3048134e-06,0.6809372,0.008200288,8.8602304e-05,0.40716177,0.0023785233
3.2782555e-07,3.5762787e-07,0.00045520067,0.016054839,0.99558175,0.9999794,0.0047782063,2.7179718e-05,0.00023266673,2.2947788e-06
2.9802322e-07,8.940697e-07,7.748604e-07,1.1026859e-06,5.9604645e-08,0.00068083405,0.00070518255,1.1920929e-07,0.123356044,0.99696624
0.011778951,0.003825307,0.0005682111,0.0007300973,1.4305115e-06,0.004524231,0.029893816,5.6922436e-06,0.6040657,0.4291056
0.9814386,0.0,0.0003646016,9.834766e-06,6.2286854e-06,0.0038775504,0.0019800663,0.022533119,0.00032806396,0.0008030236
0.9665442,3.5762787e-07,0.00015121698,1.9162893e-05,1.4305115e-06,0.018353313,0.0029163063,0.070700884,0.0073392093,0.0017211437
0.0007492006,0.0006260276,0.03003332,0.00014722347,0.00031343102,0.0014001429,0.0142323375,0.001297921,0.9853211,0.021004796
0.00029075146,1.7881393e-07,0.00064501166,0.00019779801,0.0008663833,0.0024167597,0.003753513,0.44354373,0.89469683,0.0030058026
0.021720856,0.0,1.1473894e-05,2.8908253e-06,2.9802322e-08,0.00036910176,0.00040894747,0.99855196,1.3142824e-05,0.00013133883
0.41337007,4.351139e-06,4.3600798e-05,8.9645386e-05,1.1116266e-05,0.00477612,0.006115824,0.0006274581,0.7574076,0.021399409
0.99082947,1.1920929e-07,6.917119e-05,1.6987324e-05,6.3180923e-06,0.013147533,0.004612237,0.0017957985,0.0019192398,0.0030587316
9.179115e-06,3.5136938e-05,0.00018721819,0.9997149,8.943677e-05,0.0090432465,0.0046124756,2.8908253e-06,0.0030626655,1.4990568e-05
0.0011219084,5.1259995e-06,7.405877e-05,0.99906605,4.142523e-06,0.0033084452,0.015522003,4.10676e-05,0.00020930171,7.942319e-05
0.00249812,4.351139e-06,0.000113636255,0.99860334,8.761883e-06,0.008650005,0.008801103,2.56598e-05,0.0002991259,0.00023540854
0.0036386847,2.771616e-06,7.611513e-05,0.00018805265,3.170967e-05,0.0016544163,0.013684541,0.00011745095,0.991024,0.00066527724
0.47131193,8.940697e-08,0.000106066465,1.3440847e-05,2.0861626e-07,0.0052773356,0.006342262,0.869045,0.00039815903,0.009173125
0.9900316,0.0,0.0005840063,1.3023615e-05,3.2782555e-07,0.00401935,0.0016067922,0.010854542,0.0003555715,0.0024564266
0.72985107,0.0,9.745359e-06,1.0728836e-06,1.7166138e-05,0.0033355355,0.0008762479,0.069583595,0.045387983,2.989173e-05
0.7013235,3.2782555e-07,5.7965517e-05,0.13080677,1.090765e-05,0.007989436,0.010903716,0.0010950267,0.0046007037,0.00069871545
0.99411553,5.9604645e-08,5.5342913e-05,8.895993e-05,1.2427568e-05,0.0071378946,0.0014393032,0.002848655,0.00086838007,0.001904577
0.14493844,0.0,5.2660704e-05,0.0002785623,0.93647456,0.00243482,0.00067922473,5.9336424e-05,3.0517578e-05,1.3798475e-05
0.99045026,0.0,0.0011139512,1.2665987e-05,1.847744e-06,0.0023807585,0.0025174916,0.0039003193,0.00027677417,4.8458576e-05
0.99538183,2.9802322e-08,8.5771084e-05,5.6922436e-06,7.748604e-07,0.011351049,0.0019315779,0.0011864305,0.00019451976,0.001570195
0.0020833015,2.3245811e-06,0.0040182173,0.0005342066,0.12823159,0.00095775723,0.0023936331,0.0011346638,0.9857924,0.0002297163
0.98975396,8.34465e-07,0.0057885647,0.00020569563,1.4066696e-05,0.0049295723,0.0026246905,0.006348729,0.00020125508,0.00508672
2.4080276e-05,5.8740377e-05,0.00039854646,0.00086283684,5.158782e-05,0.5980284,0.72074413,0.00015893579,0.96749973,0.00018376112
7.814169e-05,0.0002438128,0.0017034411,0.08996844,0.058744937,0.014055848,0.015706003,7.516146e-05,0.04297781,0.5023484
0.0022494793,4.5508146e-05,0.00031590462,0.9989019,0.00042706728,0.010508716,0.015618831,4.0233135e-06,0.01222387,7.554889e-05
2.1070242e-05,0.98636603,0.015162259,0.18228033,0.068874955,0.01742503,0.00851503,2.5331974e-06,0.045100927,0.0094845
0.43761247,3.1292439e-06,0.000934273,0.000103354454,0.00017359853,0.0027051568,0.0022560954,0.00049093366,0.7078359,0.013060689
0.9555476,0.0,2.2649765e-06,4.798174e-06,4.172325e-07,0.006307423,0.00052788854,0.0015361309,0.18666583,0.0004771948
0.0023740828,0.0030555725,0.0007092953,0.0019533932,2.0861626e-06,0.0012869537,0.01923287,1.013279e-06,0.049303293,0.9752809
0.33070096,8.940697e-08,3.4362078e-05,1.66893e-06,1.1920929e-07,0.0054623187,0.0034198165,0.9145122,0.0022546947,0.0043495893
0.0,1.6063452e-05,0.9571066,0.0010278523,9.715557e-06,1.0,0.00039359927,8.34465e-07,0.040667176,2.9802322e-08
0.89215064,5.9604645e-08,5.9068203e-05,0.00012820959,0.00025182962,0.0052378178,0.002505213,5.015731e-05,0.08864051,0.0005918741
0.003893286,0.00077837706,0.7054158,0.00023376942,0.00023785233,0.003992915,0.011546791,8.4251165e-05,0.958421,0.0041769147
0.9003514,1.6093254e-06,0.0005618334,0.0010594428,8.162856e-05,0.0031443238,0.0066827238,0.05615112,0.0008419752,0.02630052
3.874302e-07,0.008203745,1.2040138e-05,0.99953234,0.000113248825,0.042486995,0.89260316,5.364418e-07,0.025543392,0.00050091743
0.00054872036,3.5762787e-07,0.00013762712,6.5863132e-06,2.9802322e-07,0.00323236,0.0015287399,0.012488037,0.00089132786,0.9503415
0.97882044,4.172325e-07,0.0014517605,2.2172928e-05,3.72231e-05,0.0024580657,0.0015097857,0.0044894516,0.017124563,0.0036348104
0.9756218,9.23872e-07,0.0004233718,0.00016281009,2.82228e-05,0.013654053,0.005642414,0.00018909574,0.012297362,0.011197567
0.00014981627,8.940697e-08,0.00010240078,0.0009925067,0.13629568,0.00026533008,0.0026664436,4.082918e-05,0.99900544,5.3167343e-05
0.33223987,7.405877e-05,0.00057825446,0.00020375848,1.9669533e-05,0.003929347,0.008434832,6.5624714e-05,0.12554967,0.37957066
0.9984018,0.0,1.6838312e-05,1.5735626e-05,9.834766e-07,0.011610627,0.0010447204,0.00048041344,1.2397766e-05,2.1487474e-05
0.0,0.0069674253,2.682209e-07,0.0007908344,0.00014436245,8.9257956e-05,0.0012901425,0.0,5.662441e-07,0.037385255
0.012537599,2.5331974e-06,0.00026497245,5.5760145e-05,3.0398369e-06,0.988024,0.009126544,0.007356912,0.00042548776,0.0016431808
1.1354685e-05,3.4689903e-05,0.23135501,0.99855065,0.0009506643,0.019818217,0.012993127,6.198883e-06,0.015612274,2.2500753e-05
0.6862168,2.592802e-06,0.00011205673,3.1799078e-05,6.2584877e-06,0.0070803463,0.0034094155,0.0005041659,0.15727186,0.17306942
0.00011187792,4.082918e-06,0.0004684329,0.9999472,2.9146671e-05,0.012420207,0.01411882,1.013279e-06,0.0008929074,1.3500452e-05
0.9915867,8.940697e-08,7.581711e-05,8.33869e-05,2.2441149e-05,0.006493032,0.0032051504,0.008199781,0.001254648,0.0022075772
0.016903728,1.2069941e-05,0.0077860355,0.40988937,0.9906644,0.009071827,0.008728832,0.000114411116,0.0069858134,0.0013690293
1.1622906e-06,0.9962133,0.00027117133,0.6890944,0.00010737777,0.0086173415,0.0052942634,2.026558e-06,0.9959134,0.00067076087
0.9832908,2.3841858e-07,5.120039e-05,0.00029808283,6.16312e-05,0.0070880055,0.0009863079,1.5705824e-05,0.0045812726,0.0017654002
2.682209e-07,0.00029802322,0.9985625,8.3595514e-05,0.005111605,0.002824843,0.016767919,2.0474195e-05,0.97725224,7.122755e-06
0.8511319,1.3560057e-05,0.06771526,0.00012931228,4.87864e-05,0.02145654,0.0028205514,0.0019107759,0.021501273,0.038086087
6.0647726e-05,7.0929527e-06,0.00024467707,0.0003376007,0.00011172891,0.99864316,0.010335416,0.00025627017,0.90226763,0.0001282692
0.0,0.016344309,0.0030336976,0.0004505217,0.002849549,0.9999951,0.015606105,5.066395e-07,0.043425113,2.3186207e-05
0.00014430285,0.0001346767,0.00922516,0.99988425,0.00028413534,0.01473555,0.036446393,1.8179417e-06,0.00037273765,0.00012251735
3.5583973e-05,0.0,6.830692e-05,1.0997057e-05,2.0861626e-06,0.0008740127,0.0034123063,0.99988693,0.0019331276,0.0017626584
0.9886165,4.7683716e-07,0.0009883642,1.3023615e-05,3.784895e-06,0.0027594566,0.00089395046,4.1395426e-05,0.0049962997,0.00073876977
0.9950713,2.9802322e-08,0.00010660291,4.4703484e-06,3.1888485e-06,0.007966042,0.001311034,0.0026697814,0.0015437305,0.00039440393
0.99381876,7.4505806e-07,0.00084775686,1.847744e-05,9.23872e-07,0.011699945,0.0038311183,0.0004197955,0.00050905347,0.0038145483
0.44785628,2.0563602e-06,6.222725e-05,0.000103116035,3.9815903e-05,0.005157262,0.0021472871,0.00025600195,0.89991534,0.0031270683
0.73349154,3.1799078e-05,0.0011761785,0.00017902255,4.5895576e-05,0.004469186,0.003601551,4.74751e-05,0.2010471,0.030213535
0.00011861324,3.1858683e-05,1.5199184e-05,0.00010880828,5.9604645e-08,6.4074993e-06,0.00011944771,2.9802322e-07,0.0010055602,0.9998778
0.010874063,0.0012110174,0.037026346,0.0051805675,1.9431114e-05,0.001847744,0.009002209,7.149577e-05,0.36921167,0.71262836
5.403161e-05,0.108606875,0.018608421,0.002575934,0.00011795759,0.0033291876,0.0011391044,1.0997057e-05,0.002115637,0.9584285
0.20912436,8.672476e-06,0.00025889277,0.00022745132,4.887581e-05,0.0036749244,0.008558869,7.5519085e-05,0.8394077,0.0162642
0.95423746,1.1920929e-07,6.818771e-05,2.8401613e-05,2.503395e-06,0.0036083162,0.0038959086,0.00020936131,0.025955051,0.0463427
0.0,0.99995375,8.2582235e-05,0.00015175343,0.00047630072,0.0049307346,0.0019394159,2.592802e-06,0.102381825,3.2782555e-05
0.12917247,1.1891127e-05,0.00011664629,5.978346e-05,1.5079975e-05,0.0026625693,0.008069366,0.0003761351,0.96356535,0.005414903
0.0023939013,0.0011755228,0.0007765293,0.00069770217,1.603365e-05,0.029109389,0.9871328,2.6494265e-05,0.041675806,0.0022350252
0.67195064,2.7120113e-06,6.9230795e-05,0.00011730194,2.5600195e-05,0.0048015118,0.0016599298,2.43783e-05,0.68848,0.003505826
2.026558e-06,0.9997232,0.0010310411,0.9544291,0.0001706779,0.011912197,0.007821232,1.6987324e-06,0.024950504,0.00022366643
7.83205e-05,0.0014747977,0.003718108,0.97899055,0.0046550333,0.014312893,0.008775175,1.4454126e-05,0.008069754,0.077224076
0.77241975,4.082918e-06,0.0001835823,0.20165959,0.0011702478,0.006119877,0.0019262135,1.9460917e-05,0.040607065,0.012023419
0.25865266,0.00079357624,0.006295562,0.00012972951,1.9550323e-05,0.005076468,0.004462093,3.579259e-05,0.7667204,0.04613334
0.32132122,5.3852797e-05,0.24839845,0.0003298521,0.0009569824,0.0076901317,0.00806573,0.00028586388,0.7988674,0.0017631352
0.001273334,0.00017476082,0.0008404851,0.00014510751,8.830428e-05,0.007020712,0.012486041,0.0005528331,0.99748874,0.0016117096
0.38083977,3.3646822e-05,0.0014837682,0.0010912418,0.0001681745,0.0055081546,0.0044350326,0.0003016591,0.7870742,0.028726637
0.64077234,5.9604645e-08,6.28531e-05,1.1771917e-05,1.013279e-06,0.0019011796,0.0069511235,0.15171537,0.025156021,0.0013538897
0.97957134,1.5795231e-06,0.0013849735,0.0003015697,1.4334917e-05,0.007384211,0.0013540685,0.000105172396,0.027119279,0.0041204095
0.9979305,0.0,3.7044287e-05,2.2947788e-05,4.172325e-07,0.0073331594,0.0016810298,0.00064215064,0.00011304021,0.000348866
0.0008276701,3.2782555e-07,5.325675e-05,0.99971634,6.6161156e-06,0.0069814026,0.00806877,1.5169382e-05,2.849102e-05,1.0281801e-05
0.26862216,2.861023e-06,9.5278025e-05,9.2595816e-05,1.3142824e-05,0.007651806,0.0026572943,2.2858381e-05,0.9394748,0.001273185
0.9730967,3.2782555e-07,0.00022903085,1.79708e-05,7.599592e-06,0.004212439,0.0015639663,0.031570405,0.014219284,0.002594918
0.99879193,8.940697e-08,0.00027686357,4.4554472e-05,1.2218952e-06,0.0018950105,0.001380235,0.0001193881,7.510185e-05,0.0016809106
0.08532569,1.0669231e-05,0.00084516406,0.00014334917,0.00018694997,0.0019242167,0.0038570762,0.00011688471,0.9816669,0.0010053217
0.99393797,0.0,0.0003658831,8.4370375e-05,3.761053e-05,0.009667128,0.0004259646,7.945299e-05,0.009120047,0.000249058
0.6816129,1.21593475e-05,0.0003925562,0.000106573105,8.404255e-06,0.002393037,0.0016377866,2.4348497e-05,0.24350888,0.11309439
0.0008920729,0.97149974,0.0041714907,0.0012898445,1.21593475e-05,0.03099066,0.039908826,2.3066998e-05,0.0441612,0.060563236
0.0008382201,2.682209e-06,1.5050173e-05,0.0016385019,1.7285347e-06,0.0874649,0.9989356,0.0017267168,0.00012090802,0.00020682812
0.005993217,0.00096064806,0.0007414818,0.0019667149,1.3709068e-05,0.35515976,0.4720584,0.00045475364,0.056078076,0.055113256
0.006816715,5.325675e-05,0.0010995269,0.02794075,0.00042507052,0.007775247,0.012525797,0.00041636825,0.9836583,0.003718406
0.3824955,0.00019109249,0.0012252927,5.8978796e-05,6.556511e-07,0.003460914,0.008495182,0.0003862083,0.00030839443,0.8779156
0.0013505816,1.1920929e-07,0.0001411736,7.408857e-05,0.03167537,0.0012984872,0.0036132038,0.83923954,0.2193386,0.0006702244
5.7309866e-05,0.965037,0.0030118227,0.29255247,0.00022155046,0.03018856,0.07433653,1.7285347e-06,0.09263492,0.010271281
0.0076506436,4.261732e-06,0.00027668476,0.9974748,0.00022339821,0.018675596,0.0057495236,2.7120113e-05,0.00072300434,0.0002914667
0.99850047,0.0,7.2449446e-05,1.4334917e-05,4.1127205e-06,0.0038451552,0.0016891658,0.0012463033,3.9935112e-05,0.00034874678
0.100197256,1.5199184e-05,0.0009261668,0.000118881464,1.0430813e-06,0.001842916,0.0022636354,0.92791075,7.742643e-05,0.032310903
0.00013887882,4.3809414e-06,0.00040638447,0.0014170706,0.0004324913,0.9999685,0.003645867,4.029274e-05,0.024225116,0.00042039156
0.00023692846,2.6762486e-05,0.011461347,0.00046747923,1.7285347e-06,0.0020536184,0.0045807064,0.007882208,0.00013765693,0.9751789
2.3454428e-05,0.9711252,0.007936716,0.011378974,7.343292e-05,0.022521615,0.01586911,3.2305717e-05,0.994322,0.0008968115
0.0,0.010586441,0.0017745793,0.9999528,5.9127808e-05,0.018332958,0.8741429,1.4901161e-07,0.0009395182,6.8843365e-06
0.098059505,6.9737434e-06,0.0013370216,0.0009072125,0.0011881888,0.0033667684,0.007132262,0.0005444288,0.9533577,0.004870653
0.0,1.3023615e-05,1.8775463e-06,0.0011456013,1.1920929e-07,0.0058347285,0.9997794,7.212162e-06,0.9990498,5.662441e-07
0.8825923,2.9861927e-05,0.005349219,0.0002784431,4.1782856e-05,0.013245374,0.009335488,0.00053459406,0.027099788,0.08918831
0.060727865,2.3841858e-07,8.9377165e-05,3.0010939e-05,2.4795532e-05,0.0041217804,0.002354741,0.0004785657,0.9224328,0.0021829307
0.00094521046,1.0818243e-05,0.00024938583,0.00019365549,0.00045633316,0.0017170608,0.0057697296,0.000102221966,0.99539065,0.0067837834
0.0004862845,0.056019634,0.005358577,0.009828746,0.0008607209,0.07432112,0.8071019,0.0003245771,0.07446161,0.021145642
0.9958128,4.172325e-07,0.00042691827,1.692772e-05,3.0100346e-06,0.005298704,0.0021956265,0.00013646483,0.0007325411,0.003232181
0.9986731,0.0,5.6892633e-05,2.2739172e-05,4.4703484e-06,0.0032606423,0.0010812581,0.00036469102,0.00024136901,0.0007444918
1.6242266e-05,5.066395e-06,0.00087442994,0.0004976392,0.00018590689,0.00044086576,0.0069494545,0.0002747774,0.0049410164,0.9900042
0.984621,6.854534e-07,0.0010502934,0.00015741587,1.50203705e-05,0.0102081895,0.0055500567,0.0033577383,0.00039947033,0.014766157
3.3527613e-05,0.99868524,0.011865318,0.0031063259,0.000246495,0.008894414,0.011915714,0.0011330843,0.17607921,0.0051132143
5.9604645e-08,5.751848e-06,0.00020498037,0.99999547,0.050484747,0.004545629,0.008153677,0.0,0.0003952086,2.95043e-06
1.1920929e-06,5.5730343e-05,4.506111e-05,1.3023615e-05,0.0,0.0022258759,0.9999888,4.7683716e-07,9.655952e-06,4.0233135e-06
0.9830535,0.0,8.255243e-05,3.0398369e-06,9.23872e-07,0.0011234283,0.0012099445,0.055585504,7.888675e-05,0.0008844435
0.00011071563,0.00036391616,0.9970312,0.0002695322,0.00016739964,0.0022583008,0.0033994615,0.0004299879,0.9424919,0.00065016747
0.0,0.0010417104,0.0004631579,0.0010849535,7.161498e-05,0.99999845,0.0017828643,8.493662e-06,0.024342895,0.000290066
0.9743875,4.7683716e-06,0.00026905537,1.1056662e-05,1.6391277e-06,0.0041366518,0.0018837154,0.0007224679,0.013086855,0.072345465
0.0012110472,5.751848e-06,0.002967,0.0001090467,4.813075e-05,0.99925876,0.056848854,0.0127334,0.0005478561,0.003118068
0.0023362637,5.364418e-07,0.00015348196,1.8060207e-05,7.390976e-06,0.0003143549,0.003640622,0.0007466078,0.9990743,0.00010308623
0.0,0.0005841255,1.9222498e-05,0.0012544692,0.0001296699,0.83390003,0.89275694,0.0,0.17461717,9.998679e-05
5.4836273e-06,0.97149086,0.0026544333,0.69583166,0.00035062432,0.0312593,0.030843168,5.632639e-06,0.40434787,0.009284437
4.8428774e-05,5.6922436e-06,0.0007378459,5.13494e-05,3.1977892e-05,0.9998613,0.010181904,1.79708e-05,0.22301528,0.00017341971
0.01928547,0.008797646,0.017630666,0.013752431,1.2904406e-05,0.005389333,0.0056607127,1.9490719e-05,0.0075255632,0.8682468
0.6596416,3.0696392e-06,9.9003315e-05,4.2438507e-05,1.0162592e-05,0.0048301816,0.002783358,4.595518e-05,0.67288876,0.01515618
0.61462593,1.4901161e-07,2.759695e-05,2.8908253e-06,4.172325e-06,0.0044923425,0.0018529892,0.010067165,0.5776031,0.0017256439
0.0,7.867813e-06,0.010622233,0.0061373413,0.034056246,0.999996,0.0010732114,6.4969063e-06,0.045766324,3.7044287e-05
0.0001335442,0.017177045,0.83070976,0.0005455017,3.0368567e-05,0.0017329156,0.013246506,0.00014165044,0.9954232,0.00039574504
0.008530289,0.0013347566,0.027606547,0.0047073066,0.016847849,0.004925519,0.0054219663,6.055832e-05,0.4603045,0.14391986
0.0010565817,0.0018467605,0.00679338,0.0025778413,0.000505954,0.31286848,0.015716136,7.736683e-05,0.9570544,0.0127339065
0.81408596,1.79708e-05,0.0007276535,6.502867e-05,1.2725592e-05,0.0071587265,0.006533444,0.079071164,0.03793171,0.009279907
0.95392585,1.66893e-06,0.001937002,0.0005841851,0.00015103817,0.004208207,0.0041187108,0.00013518333,0.04399821,0.015944988
0.00011819601,2.6226044e-05,0.0002566874,0.00016734004,1.835823e-05,0.9799254,0.18673742,0.016620576,0.0055182576,0.0023054779
0.00018879771,9.596348e-06,0.9949496,0.0032703578,0.0020611882,0.0059931576,0.004268557,2.8699636e-05,0.991675,3.066659e-05
2.3841858e-07,0.076529086,0.00869602,0.00012716651,0.0001886487,0.038689464,0.12544554,0.001430124,0.75842756,0.00017127395
0.000102996826,0.05711043,0.0016629994,0.7089859,0.00027760863,0.012976885,0.64507735,5.2452087e-06,0.21642798,0.12964988
0.0029498935,1.23381615e-05,0.0005632043,0.980273,0.9822856,0.007216066,0.0033401847,1.3411045e-06,0.0015605986,0.00035133958
0.02305144,1.3649464e-05,0.98514915,0.003309667,0.0002322793,0.0068514943,0.004787594,0.0068086684,0.0024110377,0.005577773
0.15657315,1.1622906e-06,3.528595e-05,0.0001283288,4.1157007e-05,0.0015862286,0.003402412,0.000166893,0.9393821,0.00061285496
1.013279e-06,0.88133943,0.30511832,0.9988473,0.27880707,0.021462291,0.006468028,4.5001507e-06,0.008826762,9.75132e-05
0.99727213,2.9802322e-08,4.9442053e-05,2.4557114e-05,7.748604e-07,0.012589842,0.0007663071,0.00013384223,0.0010235906,0.00052314997
0.00619784,2.5570393e-05,1.4990568e-05,7.262826e-05,0.0,0.08438173,0.96966,0.0001129508,0.00058060884,0.0005657971
0.00010409951,1.1920929e-07,3.5315752e-05,0.0005236864,0.038220823,0.0008466542,0.0040447414,6.264448e-05,0.9991729,5.1677227e-05
0.00022935867,0.0,2.3543835e-05,0.99998426,1.2457371e-05,0.00174281,0.006156355,7.748604e-07,7.867813e-06,1.7881393e-05
0.9963406,0.0,8.195639e-06,7.6293945e-06,5.3346157e-06,0.0060658455,0.0005609989,0.003126949,1.6868114e-05,5.698204e-05
0.012478024,2.9802322e-08,7.557869e-05,0.9906497,0.00021991134,0.0061663687,0.0019090176,5.990267e-06,0.0004594624,2.4914742e-05
0.029451102,0.0,0.00014060736,0.0001951456,0.50161403,0.0017870963,0.00068604946,0.0030991137,0.66658425,5.0485134e-05
0.00017526746,8.195639e-06,0.00028836727,8.019805e-05,2.3573637e-05,0.9994384,0.015647382,0.00035840273,0.09620294,0.003799498
0.99162805,2.9802322e-07,0.00076046586,0.00043478608,1.4007092e-06,0.013530672,0.004019797,7.304549e-05,7.0244074e-05,0.0030210316
0.00010970235,3.784895e-06,0.009939104,0.9997605,1.3738871e-05,0.004210651,0.0042229593,2.7537346e-05,2.2172928e-05,1.0460615e-05
0.9052304,2.8014183e-06,0.00025853515,7.0035458e-06,3.2782555e-07,0.0032338798,0.0006278455,0.0011172891,0.0045388043,0.043891817
0.0012655556,0.0,3.412366e-05,5.9366226e-05,8.672476e-06,0.0021062791,0.0026905537,0.99959445,0.0009307265,0.0005954504
0.003876686,0.0002924502,0.00042155385,9.801984e-05,1.1205673e-05,0.015184492,0.82232213,0.00017818809,0.26324683,0.004809886
0.0008660257,4.172325e-06,0.0004531145,0.00028815866,0.003042996,0.00084134936,0.006462872,2.8014183e-05,0.9994248,7.9363585e-05
0.9956962,3.5762787e-07,0.00017115474,3.579259e-05,3.33786e-06,0.010610253,0.0058202147,0.00037026405,0.00020679832,0.0022950768
0.19259635,0.00026214123,0.004732728,0.00051549077,2.1487474e-05,0.0063011944,0.014563262,0.0002616644,0.47901136,0.16871688
0.9549899,2.3841858e-07,0.00013971329,4.708767e-06,2.9802322e-07,0.050005823,0.0060420334,9.7841024e-05,0.0007253289,0.008672476
0.018724203,5.9604645e-07,6.7442656e-05,0.9993558,0.00016698241,0.005862057,0.0069654286,1.1354685e-05,0.0021608174,0.0005046725
0.6482409,7.5906515e-05,0.02378276,0.00055861473,8.362532e-05,0.0036578178,0.0049745142,0.00017744303,0.28962052,0.032093525
3.874302e-07,0.9295484,0.012034357,0.0005271137,0.0022874475,0.14263836,0.017472386,1.4901161e-06,0.22206646,0.003662616
0.9945351,0.0,0.00017377734,4.4226646e-05,9.328127e-06,0.010536671,0.001498282,0.00058600307,0.006329119,0.001052618
0.9479081,5.364418e-07,0.00046688318,2.1547079e-05,8.827448e-05,0.020122558,0.0018621981,0.016837388,0.0036614835,0.003453195
3.3289194e-05,1.1324883e-06,4.634261e-05,0.999779,3.8176775e-05,0.02193448,0.029629618,7.748604e-07,6.183982e-05,2.4735928e-06
0.9922045,8.940697e-08,6.660819e-05,5.298853e-05,9.685755e-06,0.003718406,0.0003593266,5.9753656e-05,0.019750804,0.0008672178
2.9802322e-08,2.3335218e-05,0.00011771917,3.4570694e-06,9.000301e-06,0.994634,0.32181212,0.0006659925,0.0021057725,0.00066667795
5.7816505e-06,0.99842805,0.005619496,0.00483042,3.72231e-05,0.0066138506,0.008512139,1.8715858e-05,0.97993135,0.00036540627
0.9965091,5.9604645e-08,4.9114227e-05,0.00012877584,1.04904175e-05,0.0065717697,0.0005284548,0.00013712049,0.0056061745,0.0005801022
0.9872042,0.0,0.0004555583,0.00087732077,0.0001975596,0.006851256,0.0029330552,0.0012494028,0.0023841262,0.0027044713
0.05884084,6.300211e-05,0.0001668036,0.0002644062,1.5795231e-06,0.008028179,0.8899409,0.00013640523,0.00026011467,0.020724505
0.08824557,9.23872e-07,0.00034993887,0.00014147162,1.3709068e-06,0.0046062768,0.0054883957,0.9782642,0.00016370416,0.01088354
0.00042441487,5.814433e-05,3.3199787e-05,9.62019e-05,5.5134296e-06,0.99916637,0.02968216,5.4985285e-05,0.054357767,0.0048059523
0.0,0.9894629,0.00021770597,1.692772e-05,3.862381e-05,0.95899916,0.0007201731,4.053116e-06,0.87200165,0.0010837018
0.99737155,2.9802322e-07,9.8615885e-05,5.415082e-05,2.5331974e-06,0.009223998,0.0010302067,8.2820654e-05,0.0014899373,0.0014985204
0.00125283,3.257394e-05,0.00041928887,0.4722619,0.0045793056,0.0017629564,0.007040739,4.9948692e-05,0.9954188,0.000715971
0.99890125,0.0,3.579259e-05,9.655952e-06,2.0861626e-06,0.0023744404,0.000623852,0.00021263957,0.00035393238,0.0004874766
5.4240227e-06,0.0,2.4437904e-06,0.9999975,0.006027013,0.00055116415,0.00033801794,2.9802322e-08,0.0001258254,0.0
0.12934253,1.7762184e-05,7.927418e-05,0.00025323033,1.9073486e-06,0.97092396,0.13058224,0.00024589896,0.010815561,0.0025981665
0.9920696,2.9802322e-08,0.00021734834,4.2915344e-05,1.4901161e-06,0.001743257,0.0021027327,0.018341064,1.2129545e-05,0.0035794973
2.1666288e-05,0.013400555,0.00148049,0.00014406443,0.00018823147,0.014736652,0.7967136,3.0606985e-05,0.9748044,0.00254789
0.94886863,3.963709e-06,0.0005710721,0.00021496415,2.169609e-05,0.0053190887,0.0027579367,0.0006646812,0.009553492,0.06270337
0.30259332,1.886487e-05,0.0041454136,0.009816706,0.0006379485,0.000849694,0.00075665116,8.162856e-05,0.111383945,0.015417516
0.99608386,8.940697e-08,0.0006060004,1.1920929e-05,8.881092e-06,0.010555506,0.0019123554,0.0013309717,0.00053048134,0.00033465028
0.055241615,1.4603138e-06,2.4855137e-05,0.0001167655,3.9815903e-05,0.002028823,0.0036554933,8.711219e-05,0.9793852,0.0041914284
0.4879808,9.685755e-06,0.00062179565,6.771088e-05,1.7136335e-05,0.0029181242,0.0066823065,0.0009969473,0.7905544,0.011675656
0.016417623,3.1411648e-05,0.0017542243,0.00011649728,3.3169985e-05,0.0074371994,0.03272608,0.00095281005,0.21722668,0.70601606
0.73199654,1.4901161e-07,0.00019311905,1.5318394e-05,1.2606382e-05,0.0043037534,0.0033008754,0.0014276803,0.6119837,0.004316896
9.23872e-07,0.0,1.5497208e-06,0.99999964,0.00011473894,0.0014355779,0.0006610453,5.9604645e-08,2.771616e-06,0.0
3.4064054e-05,8.940697e-08,0.00010973215,8.106232e-06,9.23872e-07,0.00065493584,0.001577884,0.004312277,0.9982806,2.4735928e-05
0.00028410554,0.002362132,0.05198568,0.9996418,0.0021214485,0.025473118,0.01637432,1.1533499e-05,0.05825737,6.324053e-05
9.596348e-06,1.1622906e-06,4.5776367e-05,0.99995303,0.00026884675,0.0043338835,0.0074116588,3.8444996e-06,8.08537e-05,1.6391277e-06
0.99287486,2.682209e-07,0.00012421608,1.4275312e-05,8.672476e-06,0.009003222,0.003127098,0.006003976,0.0008684993,0.0034347475
0.004132062,2.9802322e-08,0.00053954124,1.0818243e-05,0.35252333,0.0012648404,0.0017814934,0.028927594,0.4453108,8.7320805e-05
0.0,0.00010100007,6.3329935e-05,0.9864361,0.9995091,0.0034408867,0.9885944,8.34465e-07,0.00018778443,4.133582e-05
0.99716985,2.9802322e-08,0.00016954541,3.567338e-05,2.2053719e-06,0.017793357,0.0029001832,0.000769645,0.00016531348,0.00048226118
0.009364337,8.934736e-05,0.00030347705,0.0031976104,0.0002502501,0.0015412867,0.013020605,4.1514635e-05,0.98805153,0.005495012
0.0056254566,5.9872866e-05,0.010267258,0.02095133,0.017926812,0.0037009418,0.009501249,0.0001823008,0.9955102,0.0006391704
0.0014045537,5.0097704e-05,0.00024160743,0.0022327304,0.00059854984,0.009350359,0.01414752,0.0004479289,0.99722815,0.0013096333
5.2660704e-05,0.9981308,0.0029333532,0.0021843612,3.4481287e-05,0.008925647,0.0040607452,0.0002606511,0.71405506,0.010790676
0.02445978,1.6987324e-06,9.173155e-05,0.9954282,0.0077118576,0.008662134,0.0023745596,2.6524067e-05,0.00040242076,0.0014759004
4.6491623e-06,0.00026369095,0.9866942,0.00042557716,0.0004709959,0.9997115,0.0073471963,0.00012427568,0.03164524,8.2314014e-05
0.34618032,3.0636787e-05,0.00044572353,5.2392483e-05,4.440546e-06,0.8539101,0.004699588,0.0049878955,0.0006093681,0.012689203
5.3226948e-05,4.2557716e-05,0.008814305,0.00014853477,8.946657e-05,0.99999046,0.005960554,7.587671e-05,0.02281472,0.0015526414
0.6972944,3.5762787e-07,0.000100404024,1.4215708e-05,4.5001507e-06,0.01929149,0.011557192,0.46334648,0.0024130046,0.010753363
0.00016504526,8.940697e-08,8.165836e-06,0.00057423115,3.9041042e-05,0.008898258,0.003312856,0.000597775,0.99978936,1.0579824e-05
0.008346289,8.940697e-08,2.0682812e-05,5.8621168e-05,8.457899e-05,0.0008074641,0.000718832,0.00012350082,0.9968908,0.0004645884
0.01830706,8.34465e-07,0.0010376573,0.00012049079,0.00083497167,0.00096184015,0.0027899444,0.0004800558,0.9806256,0.0009994805
0.62230784,7.927418e-06,0.00015372038,4.2915344e-05,2.9206276e-06,0.0069442987,0.0019434988,0.0022286177,0.77294636,0.011348039
0.0057397187,6.109476e-06,4.2289495e-05,0.00026774406,3.5762787e-05,0.000821352,0.011705935,6.839633e-05,0.9967421,0.0019781888
0.0013414025,0.62200797,0.012891829,0.00046887994,1.7493963e-05,0.027149796,0.106030405,0.00026080012,0.08091462,0.064796895
0.00044855475,0.00075763464,0.28263205,0.99866617,0.01116848,0.016049504,0.0064099133,2.9206276e-05,0.10696334,0.00020426512
0.9927319,0.0,3.3080578e-05,5.6028366e-06,8.34465e-07,0.006833911,0.0014720857,0.005376607,0.0035597682,0.00021913648
0.0008569956,3.5762787e-07,2.2411346e-05,3.1411648e-05,2.5570393e-05,0.0029461086,0.006760657,0.0016914904,0.99829876,0.00039961934
0.3142284,2.9802322e-08,7.900596e-05,7.05719e-05,0.00027123094,0.0019491613,0.003597945,0.0023058355,0.5991886,0.00021311641
2.682209e-07,0.032336205,0.028468937,0.0006496012,1.4483929e-05,0.029133588,0.8957613,1.6957521e-05,0.952806,0.0006301105
0.015124798,0.00037157536,0.094050795,0.00015589595,1.2725592e-05,0.015157908,0.94658065,8.755922e-05,0.0035957992,0.0074097216
0.07995498,3.0010939e-05,0.00075152516,0.00038301945,1.1980534e-05,0.011824906,0.010732979,7.7188015e-06,0.014313281,0.79852676
0.99659526,0.0,2.2053719e-05,6.3180923e-06,6.854534e-07,0.0047852397,0.0014022887,0.00032061338,0.00042453408,0.0015724599
0.9633801,1.1920929e-07,0.0003836453,1.3560057e-05,6.28829e-06,0.011626214,0.0024225116,0.01238367,0.0113042295,0.0055893958
0.9837166,2.9802322e-08,0.000115692616,3.4570694e-06,1.7881393e-07,0.0031339526,0.0011398792,0.037807822,0.0020366907,0.0023844838
4.2051077e-05,0.92087775,0.10013303,2.4348497e-05,0.00025570393,0.0007098019,0.0035732388,0.0006711781,0.026046664,0.00953719
0.045009017,0.00037008524,0.30279064,0.00041085482,0.0011406541,0.006099701,0.005847335,0.00010380149,0.96416116,0.0055035055
0.0007043183,0.10178286,0.034888268,0.014507353,0.00015726686,0.024083495,0.002245903,1.0758638e-05,0.073278636,0.64146
0.96304536,0.0,1.0788441e-05,1.4364719e-05,0.00041738153,0.0017638206,0.0009978116,0.00014913082,0.012160033,3.618002e-05
0.96072996,7.748604e-07,0.00013813376,3.5315752e-05,1.1205673e-05,0.0040364265,0.0017558336,0.00017848611,0.02646777,0.022166848
0.0,0.0010517538,0.9492899,0.9998345,0.46629435,0.036337793,0.00830242,1.937151e-06,0.020145893,4.7683716e-07
5.9604645e-08,0.9998059,0.0013880432,9.801984e-05,0.00017231703,0.011875451,0.00022768974,0.0003914833,0.606477,0.0008658469
0.014978051,2.1249056e-05,0.00017747283,0.0002194047,2.7805567e-05,0.00059095025,0.0055029094,3.85046e-05,0.991792,0.0032164156
0.9863938,8.34465e-07,0.00027486682,2.026558e-05,5.066395e-07,0.00817436,0.0015595257,0.00029224157,0.0023353398,0.014456928
0.0006425679,6.4074993e-06,0.0005450845,0.070278496,0.0034820735,0.001403451,0.007851183,0.000113755465,0.99701345,0.00092977285
0.001119554,0.0,4.518032e-05,0.0006829798,0.2718264,0.00102216,0.0070514977,0.016903728,0.99291795,1.0967255e-05
0.99846923,0.0,2.1070242e-05,3.5256147e-05,9.23872e-07,0.0015532672,0.0007723272,0.0002642274,0.0012786388,0.0004799068
2.9802322e-05,0.00058960915,0.0024238229,0.0020326376,0.00025886297,0.9913763,0.0354926,2.169609e-05,0.70203364,0.0050169528
0.0,0.99784887,0.0024584532,0.0033634603,0.002705723,0.9995475,0.000118136406,0.0,0.50769335,1.963973e-05
0.073361635,5.1885843e-05,0.0030162334,0.9023999,0.00026997924,0.018050194,0.007695526,8.144975e-05,0.0022903085,0.018170923
0.98853374,0.0,0.00020954013,3.5315752e-05,2.6524067e-06,0.0033768415,0.0040486753,0.0020217896,0.0029781163,0.0002976656
0.4226059,2.4735928e-06,0.0017279387,1.8209219e-05,1.4603138e-06,0.0023384094,0.011442184,0.039165854,0.0010526776,0.29286826
0.059939474,0.0005429983,0.7749538,0.0001552403,5.543232e-05,0.0048564672,0.0017678738,7.247925e-05,0.555282,0.0013188124
0.6070652,5.364418e-07,0.00021922588,1.296401e-05,3.0100346e-06,0.0044426024,0.0032578409,0.3774854,0.0007556975,0.06991449
0.98506165,5.9604645e-08,6.583333e-05,3.4719706e-05,1.7285347e-06,0.008580506,0.0046610534,0.008824557,0.0011389256,0.0028254688
1.6093254e-06,0.2395021,0.009931773,0.99306154,0.00038734078,0.03174573,0.6598855,1.013279e-06,0.7353772,0.0015350282
0.99538887,2.9802322e-07,0.00075784326,0.00020095706,5.9604645e-05,0.008595407,0.0015287995,0.00034460425,0.0007915795,0.002079606
0.054336697,1.4692545e-05,0.007669449,7.6532364e-05,3.0726194e-05,0.002765596,0.0035800636,0.0016967654,0.9338751,0.03654906
0.0002566576,0.001858145,3.120303e-05,5.0216913e-05,1.1026859e-05,0.021906108,0.8978481,4.157424e-05,0.1811631,0.019839764
6.645918e-06,0.0,0.00018978119,0.9998194,7.82609e-05,0.0052324235,0.005481571,0.00011104345,5.3286552e-05,0.00016096234
0.9991361,0.0,0.0003682673,3.412366e-05,1.0192394e-05,0.0030189157,0.00022727251,8.076429e-06,0.00015458465,7.6919794e-05
0.9980081,0.0,0.00021931529,3.606081e-05,8.940697e-07,0.007751614,0.002544582,0.00032266974,0.00018930435,0.001241982
0.00058093667,0.00020071864,0.0023402572,0.0029922128,5.8323145e-05,0.9971243,0.053229153,9.483099e-05,0.009318888,0.039421856
1.2695789e-05,0.0,1.5079975e-05,1.12354755e-05,5.5998564e-05,0.0011242926,0.005419582,0.13786483,0.9987525,4.2438507e-05
5.90086e-06,8.490682e-05,0.00011366606,0.0005931556,2.1785498e-05,0.002231419,0.95670503,0.00027647614,0.99741447,0.0002527535
0.0084632635,5.364418e-07,3.9041042e-05,1.3917685e-05,9.030104e-06,0.0029052794,0.009922326,0.010499507,0.98574483,0.002145201
0.00011327863,0.01759854,0.95472884,0.0023285449,0.002007693,0.015292764,0.10766497,9.1940165e-05,0.45163885,0.020639718
0.964321,2.9802322e-07,0.00016278028,0.00023168325,2.4229288e-05,0.015073627,0.0016943514,0.00085544586,0.022827953,0.0049915016
0.00011861324,3.1858683e-05,1.5199184e-05,0.00010880828,5.9604645e-08,6.4074993e-06,0.00011944771,2.9802322e-07,0.0010055602,0.9998778
0.009009838,0.0,0.00018706918,0.00017774105,0.99939346,0.00027152896,0.0008816421,7.2568655e-05,0.0007736087,3.7252903e-06
0.97878623,5.751848e-06,0.000529021,0.0001630485,7.6293945e-06,0.004054427,0.000618279,2.9176474e-05,0.01631704,0.015125096
0.1480586,1.3113022e-05,0.0025827885,0.0001872778,8.457899e-05,0.021178424,0.018171996,0.00086167455,0.020929754,0.118845016
0.99783796,2.9802322e-08,0.0001552403,1.1205673e-05,1.6599894e-05,0.0031067133,0.0005488694,0.00014689565,0.0060400367,0.00021976233
0.00023394823,7.7188015e-06,4.2140484e-05,3.120303e-05,7.867813e-06,0.00012904406,0.003109187,1.0102987e-05,5.185604e-06,0.9997905
0.00047710538,0.0,7.390976e-06,1.1831522e-05,9.1433525e-05,0.0018759966,0.003996581,0.023862273,0.9853077,0.00068488717
0.17806333,4.708767e-06,8.6188316e-05,0.04332909,0.0003029108,0.009904116,0.002726823,4.7415495e-05,0.6503291,0.018189788
0.99111927,1.1026859e-06,0.00055134296,9.9390745e-05,7.56979e-06,0.007024735,0.0025812387,2.7507544e-05,0.0025613904,0.0029132664
0.0,3.5762787e-07,2.0861626e-07,4.172325e-07,5.9604645e-08,0.0017937124,0.99999666,4.029274e-05,0.00028556585,3.632903e-05
0.0,4.1157007e-05,0.00040131807,0.00081020594,3.8683414e-05,0.9999997,0.003352344,6.9737434e-06,0.054433048,0.00019749999
0.015033543,1.2069941e-05,0.001992315,0.99799323,3.85046e-05,0.0013539195,0.005078912,2.3305416e-05,1.1712313e-05,0.0010793805
0.9944312,0.0,3.9815903e-05,7.113814e-05,0.00017616153,0.008698016,0.0006093681,0.0028971732,0.00035086274,0.00039297342
1.9043684e-05,1.6391277e-06,0.0002117157,0.99991846,1.579523e-05,0.0039146245,0.007278502,2.0861626e-07,0.00067555904,1.40964985e-05
2.2053719e-06,0.9905249,0.009029299,0.99631774,0.0005699694,0.010617375,0.017937154,3.2484531e-06,0.1416041,0.00056782365
0.9851662,1.1920929e-07,9.983778e-05,1.2725592e-05,2.3841858e-07,0.0121308565,0.0022307038,0.0050326586,0.00012391806,0.0034571886
1.7434359e-05,3.695488e-06,0.018154621,0.008882403,0.7705034,0.99118805,0.0061670244,0.00010830164,6.607175e-05,0.00012335181
2.7805567e-05,7.033348e-06,0.00024059415,0.99993885,3.4719706e-05,0.0028909743,0.011847883,3.963709e-06,8.1151724e-05,1.1056662e-05
0.00014829636,0.0,3.8444996e-06,8.761883e-06,3.427267e-06,0.00040966272,0.0035433471,0.014793843,0.9998247,2.7298927e-05
0.0011999607,8.940697e-08,1.4871359e-05,0.9787737,5.0365925e-06,0.00489974,0.0020874739,2.026558e-06,0.0030096471,3.0130148e-05
0.00040620565,0.022307515,0.0014505684,0.0043587685,5.9455633e-05,0.0056581795,0.017953306,9.23872e-07,0.04253474,0.9785447
1.1920929e-07,0.0,1.0728836e-06,0.999995,1.4901161e-07,0.0008636415,0.0020985901,2.0861626e-07,3.0398369e-06,0.0
1.4454126e-05,2.5629997e-06,3.5762787e-07,7.405877e-05,2.0861626e-07,0.0036625862,0.99956226,0.0001449883,0.6808745,0.00031748414
0.9965624,0.0,0.00018888712,5.8710575e-06,2.1457672e-06,0.00606066,0.0009700656,0.00080931187,0.00031372905,0.0009842217
0.9987201,0.0,0.00013196468,2.3692846e-05,2.9802322e-07,0.010374427,0.0005273223,0.00026741624,1.4126301e-05,0.00010189414
0.30581903,9.000301e-06,0.0028970242,0.00013449788,2.554059e-05,0.003420025,0.017415524,0.116131365,0.22659174,0.027953416
5.352497e-05,4.6014786e-05,0.00013941526,0.002183944,2.682209e-07,0.0031729937,0.999108,0.07027581,8.85725e-05,0.0014221966
3.874302e-07,2.9802322e-07,6.7949295e-06,0.99987376,0.0038214922,0.026763618,0.008646607,7.748604e-07,0.9922122,2.2947788e-06
0.00094243884,0.0060057044,0.013019443,0.0009716153,3.4183264e-05,0.50818187,0.049125075,4.476309e-05,0.21035978,0.17403826
0.038262725,1.40964985e-05,0.00020843744,0.00014775991,1.6599894e-05,0.0018797219,0.0077249706,0.00032156706,0.82664794,0.15861759
0.000102221966,0.034923255,0.19845021,0.0015258193,8.904934e-05,0.008227855,0.70867234,2.7805567e-05,0.9182688,0.009897023
0.11663529,3.5762787e-07,0.0001911521,3.325939e-05,2.95043e-06,0.0016823113,0.006507039,0.9835911,0.0006915033,0.0019991994
0.009442598,0.00053843856,0.011930287,0.0020172298,0.00084093213,0.003294289,0.009049654,6.151199e-05,0.9799384,0.030850947
0.9692267,2.503395e-06,0.00693503,0.0001758039,5.6177378e-05,0.01495257,0.0062950253,0.01997447,0.0008870661,0.0047786534
0.969965,2.9802322e-07,0.00010204315,0.000112742186,7.4237585e-05,0.007058382,0.0012667179,0.00032445788,0.13319889,0.0023939908
0.02385965,4.044175e-05,0.99378014,0.0018300712,8.97944e-05,0.004577577,0.00513193,0.0005275905,0.17266479,0.0017707944
0.9962591,2.9802322e-08,0.00014904141,1.6152859e-05,2.8908253e-06,0.005451262,0.0017796457,0.0025378466,0.00071677566,0.000608623
0.00010803342,3.5762787e-07,6.2286854e-05,8.6545944e-05,1.0639429e-05,0.0017802417,0.014410764,0.012534469,0.99908483,8.094311e-05
0.5913413,8.940697e-08,1.0728836e-05,1.9848347e-05,4.9471855e-06,0.005607635,0.0022644997,0.003540516,0.61105204,0.0049693584
0.98834634,2.9802322e-08,0.000110566616,1.9788742e-05,1.1146069e-05,0.0050034523,0.0017665625,0.00055778027,0.0069481134,0.0068962276
0.07916355,8.493662e-06,4.1782856e-05,2.8401613e-05,1.3321638e-05,0.0017637908,0.006667584,3.2663345e-05,0.8356427,0.17929855
0.15430492,7.2717667e-06,0.00047120452,0.000117748976,7.081032e-05,0.0028638542,0.0026998222,1.591444e-05,0.92591107,0.012476534
0.000751853,3.5583973e-05,0.99297464,0.00059354305,0.00027135015,0.004933715,0.031787694,0.00046554208,0.021662325,0.016850442
0.00041383505,0.0,7.212162e-06,1.4036894e-05,0.051112086,0.00046363473,0.0011038184,0.0027246475,0.9947451,3.874302e-07
0.0018740892,3.3974648e-06,0.002975136,0.00030109286,0.89510167,0.010774881,0.017354935,0.00080287457,0.09143612,0.0031233728
0.23420891,1.3709068e-06,1.9162893e-05,4.5120716e-05,8.225441e-06,0.0025528967,0.004756838,4.1097403e-05,0.82459795,0.01182276
0.0077370703,8.940697e-08,2.8580427e-05,4.145503e-05,5.7071447e-05,0.0002450645,0.0016393065,6.80089e-05,0.99810076,0.00011694431
0.9851405,1.1622906e-06,0.00016796589,3.8921833e-05,1.1920929e-06,0.023079067,0.005030453,0.00013494492,0.005095601,0.0021808445
0.007991761,2.6792288e-05,0.00015220046,0.00015729666,0.00013509393,0.0052279234,0.018467754,0.0005001426,0.9801729,0.008912474
2.9802322e-07,0.0020626783,0.1859662,0.0003055632,0.0028159022,0.9998851,0.002820164,1.3500452e-05,0.91701126,7.57277e-05
0.35774732,0.0,1.692772e-05,2.8520823e-05,1.7881393e-06,0.0072334707,0.0013149977,0.00075247884,0.7425281,0.000595212
0.9361717,5.9604645e-08,2.1636486e-05,9.447336e-06,1.6391277e-06,0.006829858,0.0014899075,0.00045603514,0.11947149,0.0016063452
0.9848025,1.7881393e-07,0.0003054142,0.00041005015,0.00028297305,0.01524213,0.0019765198,6.142259e-05,0.0048482716,0.00075134635
0.004052311,2.0861626e-05,0.0005886555,0.0004969537,0.0003158152,0.0031161904,0.008518398,0.0003567338,0.9968241,0.0024450421
0.0010530353,4.172325e-07,0.99981236,0.0003838539,1.168251e-05,0.007496476,0.001427114,0.0077652037,0.0027097762,9.870529e-05
0.9921539,1.7881393e-07,0.0002632141,9.921193e-05,2.6106834e-05,0.008045644,0.002501607,0.00020998716,0.0029399097,0.00401783
0.96788836,6.854534e-07,0.00037130713,0.000118523836,0.00039464235,0.014016777,0.0033044815,0.0014031231,0.0042054653,0.012033224
0.9883344,0.0,4.2915344e-06,9.536743e-06,9.000301e-06,0.0005720854,0.00015243888,0.056768894,1.4394522e-05,5.00679e-05
1.1920929e-07,0.015371293,0.8133234,0.0221169,0.0022931695,0.99629486,0.027629822,1.9580126e-05,0.9921322,2.5182962e-05
0.9798788,8.6426735e-07,0.00057813525,4.1991472e-05,1.0311604e-05,0.005372256,0.003020078,0.0057103634,0.006298989,0.0026222467
2.7120113e-06,0.9994332,0.0002616346,0.014307797,3.9309263e-05,0.036797374,0.0032536983,1.591444e-05,0.989534,0.0003694892
0.0,0.9998765,3.2037497e-05,2.0861626e-06,0.001043886,0.013352066,0.00011000037,2.8967857e-05,0.13961604,0.00025504827
0.9109903,1.7881393e-06,0.00018653274,0.0001308322,5.9485435e-05,0.0067548156,0.0043413043,6.762147e-05,0.11554995,0.0029904246
0.00015097857,0.00017848611,0.004098147,0.99945056,0.49521062,0.009208292,0.0025261939,6.377697e-06,0.0005634427,0.0003796816
0.9662761,4.172325e-07,0.005843729,2.270937e-05,4.1514635e-05,0.004392147,0.0019301474,0.0011315048,0.0921205,0.00032177567
0.033599347,3.7252903e-06,0.0006005764,3.1888485e-05,3.1590462e-06,0.0026254654,0.005248666,0.0001552701,0.9828341,0.00080674887
5.853176e-05,0.027435571,0.0003350079,0.00020316243,1.7881393e-07,0.007380396,0.99160945,0.000113517046,0.011656731,0.0015368164
1.3500452e-05,1.2040138e-05,0.00015050173,0.9999456,2.1725893e-05,0.0091691315,0.01078403,3.0994415e-06,0.00045073032,3.1292439e-06
0.0,6.854534e-07,8.940697e-08,3.5762787e-07,9.23872e-07,0.0049384236,0.9998917,7.626414e-05,0.00062695146,0.00072687864
0.8623199,5.543232e-06,0.0003221929,2.8908253e-05,7.3611736e-05,0.0016421974,0.0006918609,0.00068181753,0.34164873,0.00179407
0.74893695,1.5199184e-06,0.007156849,0.000104904175,1.4692545e-05,0.009516209,0.0072357953,0.56917447,0.00061637163,0.0104008615
0.0,1.1593103e-05,0.00014674664,0.0040513873,0.015540123,0.99999547,0.0018008947,1.4066696e-05,0.0070873797,0.00018385053
0.00035062432,1.1920929e-07,0.000103354454,4.643202e-05,0.00018778443,0.00029855967,0.004974097,8.562207e-05,0.99975425,1.7553568e-05
8.0913305e-05,0.05650437,0.120664746,0.9042758,0.0001758337,0.0095434785,0.02630803,4.23193e-06,0.96871006,0.0093539655
0.5924218,1.31726265e-05,0.00015491247,0.0005197227,1.6540289e-05,0.0054862797,0.0076156557,0.00027111173,0.3412474,0.10800472
3.385544e-05,0.31125313,0.0010486841,0.00512439,1.2040138e-05,0.011756718,0.42397797,2.6494265e-05,0.92625195,0.008665353
0.99624443,2.682209e-07,0.001088649,6.0230494e-05,1.1831522e-05,0.008059531,0.0024724305,0.0005812049,7.8976154e-05,0.0038767457
0.97483754,0.0,0.0001346767,0.0001013577,1.4126301e-05,0.009573787,0.0028516948,0.034332007,0.00056764483,0.0038682818
9.086728e-05,2.0861626e-07,8.234382e-05,0.9999179,3.311038e-05,0.012843907,0.0043627024,7.688999e-06,0.00022020936,4.9471855e-06
0.9990343,0.0,5.993247e-05,9.655952e-06,7.1525574e-07,0.006397724,0.00056782365,0.00046914816,6.982684e-05,0.00016093254
0.12447718,7.882714e-05,0.00057023764,5.1766634e-05,3.9041042e-06,0.0064795315,0.005761564,6.556511e-05,0.5500012,0.45579457
0.03128597,2.0861626e-07,2.6196241e-05,4.3094158e-05,7.748604e-07,0.0040054023,0.007981688,0.92673767,0.15023476,0.004858166
0.004264593,1.963973e-05,0.00013670325,0.00053316355,0.00017133355,0.0021083057,0.009734809,8.8214874e-05,0.9974828,0.0026277602
0.0016491413,5.066395e-07,0.00019332767,0.9992178,2.4497509e-05,0.020418674,0.012061268,0.00011664629,0.001406759,3.3944845e-05
0.0,0.98725057,0.008693337,0.0025015473,0.9855505,0.0180569,0.001709789,4.172325e-05,0.050228268,0.0002734959
0.00013247132,0.0004786551,0.0004454553,3.194809e-05,2.413988e-06,0.0016412139,0.0039012134,7.987022e-06,0.0015114546,0.9963143
0.0017329752,8.8602304e-05,0.0013927519,0.9985593,0.0008458793,0.019152194,0.009272575,1.0818243e-05,0.00036761165,0.0003091097
0.0012361109,3.2812357e-05,0.0004310608,0.99948007,0.00039169192,0.012501329,0.0147475,1.0192394e-05,0.010160327,0.00012335181
0.059190482,1.013279e-06,0.00012528896,0.00017401576,0.00022631884,0.0015784502,0.0018526316,0.0002618134,0.991721,0.0005595386
0.71083355,1.9937754e-05,0.00079628825,1.0967255e-05,1.335144e-05,0.012124211,0.015139222,0.00036388636,0.14249933,0.079583615
0.99558246,0.0,4.1246414e-05,7.897615e-06,1.3411045e-06,0.0036759675,0.00080394745,0.0039361417,0.00017428398,0.0010763109
2.1874905e-05,9.685755e-05,7.003546e-05,0.0039717555,0.00012543797,0.04432121,0.89474607,0.010731131,0.0009467602,0.011783749
0.09607151,1.9699335e-05,8.994341e-05,0.00095164776,6.9350004e-05,0.0027695298,0.00722301,2.5838614e-05,0.8262402,0.05133167
0.99478936,4.172325e-07,0.0001810193,6.5386295e-05,2.95043e-06,0.003004849,0.0018767715,7.921457e-05,0.00055778027,0.016180545
0.99547195,0.0,6.446242e-05,2.6613474e-05,1.0281801e-05,0.0025578141,0.0021650791,0.00029596686,0.0006672442,0.00020891428
0.00031271577,9.536743e-07,0.0005694032,3.9607286e-05,1.2099743e-05,0.0022862852,0.029942572,0.88166714,0.0058537126,0.21540573
0.9831108,4.7683716e-07,0.004080087,3.85046e-05,1.7374754e-05,0.017438084,0.0016138554,0.0015338659,0.010162085,0.00390923
0.037987262,5.9604645e-08,4.7802925e-05,1.9937754e-05,8.34465e-07,0.0030002296,0.004591435,0.9884994,0.0005233884,0.00040999055
0.00014540553,0.00041648746,0.96443546,0.0002168119,9.49502e-05,0.0024239123,0.013210654,7.5519085e-05,0.99852943,0.000109404325
0.00068461895,3.2782555e-07,0.9995824,0.00033655763,8.34465e-05,0.0066776574,0.0022028983,0.009707421,0.1260815,0.00023725629
0.99054664,1.1324883e-06,0.0457443,4.4226646e-05,5.2452087e-06,0.0021108985,0.0017365217,0.00011622906,6.005168e-05,0.0021784306
0.0,0.0,1.4305115e-06,0.0,0.0,1.0,3.6358833e-06,0.0,1.0192394e-05,1.4901161e-07
0.26289773,8.046627e-07,0.005916536,9.119511e-06,1.4901161e-07,0.00087094307,0.0029194653,0.00078353286,6.869435e-05,0.87655425
0.96642864,9.23872e-07,0.00043815374,0.00012102723,3.2752752e-05,0.014889896,0.005046487,0.025300503,0.0029788017,0.007856578
0.019896507,0.0011052787,0.4940969,0.0041233003,0.00018763542,0.0040915906,0.005524218,2.8461218e-05,0.24934885,0.16164953
4.4703484e-06,2.6106834e-05,0.9655771,0.852529,0.006833911,0.0075910687,0.16572094,0.003944725,0.00060242414,0.00014558434
0.0,0.5924949,3.9845705e-05,0.99773324,0.004068285,0.13654253,0.7665963,5.066395e-07,0.022420913,1.6182661e-05
1.3411045e-06,4.9740076e-05,0.14297485,0.99982536,0.12961593,0.009122908,0.0017271042,3.2782555e-07,0.24030769,4.5597553e-06
1.0341406e-05,1.1175871e-05,0.00022664666,7.5638294e-05,0.0,0.0016687512,0.0005789995,0.0010207891,0.0015512705,0.98189217
0.00022906065,5.9604645e-08,0.87845063,0.99717903,5.2452087e-06,0.00026527047,0.00029954314,5.6028366e-06,0.00036206841,0.00026360154
0.996544,5.9604645e-08,0.00080519915,2.026558e-05,1.2069941e-05,0.005035639,0.002782911,0.0007369518,0.0008160472,0.0006416738
0.016126186,8.940697e-08,0.000654459,3.027916e-05,0.9697876,0.0025792122,0.0007329285,0.00033074617,0.11753449,1.4364719e-05
1.1622906e-06,0.24824709,0.0013844073,0.0006464422,0.0002374649,0.07358149,0.0857659,6.2584877e-07,0.9992574,0.00013330579
0.0062029064,2.2858381e-05,8.1539154e-05,0.0011667013,0.00013267994,0.008376777,0.00928095,9.521842e-05,0.98956144,0.0051600337
0.9387589,2.9802322e-07,0.0013070703,0.00016471744,1.2218952e-05,0.004460633,0.0032507777,0.11487061,0.00018265843,0.010044068
0.98520553,1.2516975e-06,0.0001693666,8.0406666e-05,9.685755e-06,0.00869149,0.0034237802,4.3213367e-05,0.003484279,0.0056557953
1.3113022e-06,0.008291125,0.0069856346,0.9992149,0.00081682205,0.004975617,0.014655381,1.1920929e-07,0.9768147,0.00067287683
0.39067286,4.5210123e-05,0.0022128224,5.1885843e-05,3.874302e-06,0.010385215,0.008420348,0.00055757165,0.55595,0.10252395
0.00046652555,3.0100346e-06,0.9997957,0.49110258,5.9604645e-05,0.011265367,0.0024423003,0.00050494075,0.0012979805,0.00013658404
0.0004915595,0.00013142824,0.99932706,0.0020310879,0.0004863143,0.0060414374,0.0039742887,0.00038036704,0.24112123,0.0020931065
0.9317985,1.9073486e-06,0.001725316,0.00017467141,0.00012263656,0.0051465333,0.00379771,0.0007132292,0.07744071,0.009108663
0.02434218,5.9604645e-08,0.00028011203,5.2392483e-05,4.7534704e-05,0.00089627504,0.0037861466,0.00061643124,0.9966545,0.00012764335
0.1574167,0.00056028366,0.70880413,5.6952238e-05,2.8371811e-05,0.028248727,0.11940199,0.0006082654,0.007052779,0.006484747
1.013279e-06,0.99960726,0.0026388168,0.0101031065,0.0010023117,0.01864329,0.0069469213,1.6063452e-05,0.7385881,0.00034543872
0.9927852,2.9802322e-08,0.007652551,6.148219e-05,2.0235777e-05,0.0043960214,0.0009197295,0.00014010072,0.0007917285,0.00043702126
0.9907558,2.9802322e-07,0.00042968988,1.0102987e-05,1.5795231e-06,0.018985718,0.013467461,0.00012654066,0.00066512823,0.001832813
0.04247111,7.033348e-06,0.4258942,0.00038015842,0.0008482039,0.003786832,0.0060323775,0.0032675862,0.93804115,0.0006918907
1.6391277e-06,8.195639e-06,7.3581934e-05,0.99992216,0.00014254451,0.009322196,0.0069040656,2.3841858e-07,0.74743074,8.940697e-07
0.19545758,5.9604645e-08,3.1888485e-06,7.301569e-05,1.731515e-05,0.0049338043,0.0015229881,0.00021570921,0.92872155,0.0006786883
0.64771736,2.0861626e-07,4.6670437e-05,8.2433224e-05,2.142787e-05,0.001093626,0.0017260611,0.0003170967,0.6735729,0.0015607774
9.23872e-07,0.99695885,0.0011808872,0.0195086,0.0002667606,0.055127203,0.0024050176,1.4901161e-07,0.7978623,0.044675767
1.6838312e-05,8.955598e-05,0.00038954616,0.99997914,0.00034698844,0.006872833,0.01338765,8.046627e-07,0.0016487539,2.0086765e-05
0.9959966,0.0,9.307265e-05,6.0796738e-06,7.4505806e-07,0.001763314,0.0009127259,0.0029205382,5.158782e-05,0.0020918548
0.9968004,5.9604645e-08,0.00014415383,1.7285347e-05,1.4305115e-06,0.009809375,0.0008507073,4.6998262e-05,0.00052919984,0.0002835393
0.98921204,2.9802322e-08,4.544854e-05,1.8894672e-05,6.854534e-07,0.0018416941,0.0013620853,0.00020468235,7.7188015e-06,0.0009366274
0.020667493,2.9802322e-06,0.0005517304,4.261732e-05,2.2649765e-06,0.015713543,0.054172844,0.0008355975,0.015652716,0.88395196
8.827448e-05,0.9867065,0.014065504,0.01022476,7.164478e-05,0.016864002,0.016971797,1.1354685e-05,0.99101925,0.0016928613
8.940697e-08,0.002143532,0.016670197,5.2839518e-05,0.00028592348,0.9999342,0.0808962,2.3841858e-05,0.6940418,2.321601e-05
0.9902418,5.9604645e-08,4.8846006e-05,3.6984682e-05,6.7949295e-06,0.015444905,0.0031391084,0.00012817979,0.0060604215,0.0014636219
3.734231e-05,0.046493262,0.77709055,0.008999884,0.003489256,0.026296109,0.39600682,0.00014016032,0.03503552,0.008194119
0.002352327,0.0003401041,0.008027613,6.0141087e-05,6.854534e-07,0.003600508,0.01603219,0.00028848648,0.0012291372,0.9795829
0.0001309812,2.9802322e-08,0.00038167834,0.0012509823,0.9644135,0.00033953786,0.00094494224,1.7642975e-05,0.99746025,1.50203705e-05
0.00034421682,7.5101852e-06,0.0010605752,3.4064054e-05,1.3321638e-05,0.9999831,0.016628891,0.00018075109,0.0049880147,0.00012901425
0.92966044,3.4570694e-06,0.0008288622,0.00031203032,1.8656254e-05,0.002847731,0.001295507,1.7881393e-05,0.0960989,0.0060316026
0.4618837,4.9978495e-05,0.00447613,4.1395426e-05,9.149313e-06,0.0048060417,0.009112,0.00017526746,0.00034230947,0.5589466
4.7683716e-07,0.9997402,0.00042185187,0.00051629543,0.00077074766,0.011027396,0.0004825592,3.8683414e-05,0.15053666,0.0018178225
0.997075,2.9802322e-08,3.552437e-05,2.4676323e-05,2.026558e-06,0.0068240464,0.0048776865,0.00052794814,0.000115692616,0.0011249781
0.055114806,5.030632e-05,0.027219802,0.00079649687,0.00082051754,0.0025394857,0.005580485,3.3020973e-05,0.9550549,0.0016504824
9.995699e-05,0.0043766797,0.00022876263,0.00033789873,3.9041042e-06,0.020100683,0.90306413,0.00010535121,0.6070262,0.026761383
0.9981741,0.0,7.224083e-05,9.953976e-06,1.2814999e-06,0.0031842887,0.0008594394,0.00047835708,0.00036495924,0.00058829784
0.00021514297,7.200241e-05,0.013580263,0.00023794174,5.1617622e-05,0.9999348,0.003942549,0.00013318658,0.11594248,0.0006354749
0.74292403,6.0498714e-06,0.6080597,0.00016006827,7.599592e-06,0.001059711,0.0010108352,0.018286854,0.00077709556,0.012586832
0.00018957257,1.013279e-06,5.4746866e-05,0.9999651,0.0002914667,0.00943923,0.014188021,2.682209e-07,0.0034184754,8.5532665e-06
0.06499326,2.8312206e-06,0.23130882,0.00031122565,7.203221e-05,0.0026247501,0.009651303,0.0069993734,0.018545091,0.64638656
0.7883402,8.34465e-07,0.0001706481,1.0371208e-05,1.9669533e-06,0.005779952,0.0030469596,0.0009403825,0.48437357,0.008665681
0.19402501,6.365776e-05,0.0033140182,0.00030198693,6.7949295e-06,0.02156341,0.5163733,9.164214e-05,0.00048017502,0.008113295
0.0013783276,0.0,2.413988e-06,2.0325184e-05,6.735325e-06,0.0007250011,0.001970172,0.00090941787,0.9981931,0.00024041533
0.00037881732,0.99809515,0.0016121864,0.0024702847,3.7044287e-05,0.00891313,0.0038143098,1.2308359e-05,0.11236748,0.014137983
0.99568903,1.1920929e-07,6.0617924e-05,5.441904e-05,3.9041042e-06,0.010185093,0.005365193,0.00029027462,0.0004862547,0.0011535287
0.08325896,0.0029859245,0.013733953,0.000103890896,1.0877848e-05,0.004742831,0.004768491,0.00014606118,0.7348401,0.36492506
0.99682164,0.0,1.2695789e-05,2.8312206e-06,3.5762787e-07,0.014171153,0.0018659532,0.00091537833,0.00031900406,0.0015447438
0.2379227,3.5762787e-07,0.9760301,4.643202e-05,3.3974648e-06,0.0043793917,0.00084862113,0.0009023547,0.00010436773,9.614229e-05
0.8781167,1.1622906e-06,0.00017410517,0.00025114417,0.026305795,0.0047931373,0.0028641522,0.00033462048,0.0006235242,0.00427413
0.99491084,0.0,0.00012400746,3.1232834e-05,5.2452087e-06,0.0056339502,0.003136307,0.008228779,0.00012877584,0.0017110407
0.01376009,2.0503998e-05,0.0009688735,0.0011530519,0.0019316673,0.04782468,0.8098152,0.00062945485,0.0009531379,0.0082909465
0.917227,6.0796738e-06,0.35089213,2.321601e-05,3.0457973e-05,0.0064611137,0.0022093058,0.00208202,0.0027210414,0.0062496364
0.93773514,0.0,5.0365925e-06,1.7911196e-05,2.9802322e-08,0.0011331439,0.0005001128,0.17334718,1.7851591e-05,0.000112235546
7.748604e-07,2.115965e-06,6.252527e-05,0.00014859438,3.3557415e-05,0.9982808,0.015213847,2.9593706e-05,0.99120605,4.169345e-05
2.9802322e-07,0.0,1.9550323e-05,0.99999803,0.0013516843,0.00040510297,0.0016090274,4.7683716e-07,4.798174e-06,2.9802322e-08
0.035510093,9.953976e-06,0.00021517277,0.00010228157,1.7493963e-05,0.0021705627,0.0049981475,6.4611435e-05,0.97586715,0.023928821
0.99293506,8.940697e-08,0.00016146898,7.110834e-05,8.404255e-06,0.010618001,0.0008491874,0.00023916364,0.011775762,0.0030130148
0.0010632575,5.8352947e-05,0.90191686,0.0027772784,0.24710795,0.009746045,0.0063427985,0.00016650558,0.00070360303,0.0016785562
0.0,0.0023662448,0.9692464,0.9997794,0.0012489259,0.06878576,0.90117604,8.285046e-06,0.0001361072,9.536743e-07
0.98902667,2.9802322e-07,0.00011792779,2.3782253e-05,6.0796738e-06,0.0033904016,0.0014615655,5.9962273e-05,0.0043969452,0.014943302
0.001183033,0.00013917685,0.20188472,1.1265278e-05,2.2470951e-05,0.00065621734,0.008976519,9.9778175e-05,0.9980047,0.00039228797
9.834766e-07,4.044175e-05,4.3809414e-06,1.2516975e-06,4.172325e-07,0.044746667,0.99917006,0.00016739964,0.00074645877,0.0017000437
0.0052884817,0.0021336973,0.89101815,0.008045405,0.00021901727,0.00568676,0.009495646,2.8252602e-05,0.18971774,0.07146922
0.079573184,0.0,6.854534e-06,2.6524067e-05,5.659461e-05,0.0010941923,0.002107054,0.0007046461,0.97881806,1.6510487e-05
5.9604645e-08,0.9678674,0.017753482,0.0072135627,0.0019924045,0.91186625,0.0610826,4.7683716e-06,0.14760175,0.00031119585
0.00020360947,0.000277251,0.02026689,0.9994587,0.021149099,0.0061778426,0.0038411021,4.4316053e-05,6.651878e-05,0.0016355217
0.0,0.9988314,3.2812357e-05,0.9994309,0.018606454,0.010710597,0.0028776526,1.1920929e-07,0.046363056,2.2649765e-06
0.78782135,4.5597553e-06,0.0005261302,0.00012728572,2.0563602e-05,0.020122796,0.0057846606,0.004315257,0.4490658,0.0024067461
0.00034883618,1.3232231e-05,0.00047504902,3.3050776e-05,2.682209e-05,0.99974984,0.006032467,0.05169496,0.013865858,0.0019061863
0.9881493,1.9669533e-06,0.00044173002,3.7133694e-05,1.257658e-05,0.010216594,0.0032187402,0.0039310157,0.003349185,0.008330822
0.0,0.008111358,0.98027647,0.0043893754,0.006650567,0.99831903,0.016251534,8.21352e-05,0.024362147,7.292628e-05
0.038418442,1.1920929e-07,1.4305115e-06,0.00021496415,3.606081e-06,0.007804394,0.0034808815,0.004113555,0.96449065,0.00054612756
4.8577785e-06,9.834766e-07,0.0036741197,0.999914,0.790566,0.00097617507,0.003582269,1.1771917e-05,5.1677227e-05,0.00010469556
0.0017568469,3.7282705e-05,0.0008507073,0.00018274784,0.00029361248,0.0014152825,0.007304102,1.6331673e-05,0.99823374,0.0010814667
0.9732367,8.6426735e-06,0.00037166476,0.0004937351,9.4771385e-06,0.008443207,0.0047903955,0.00014004111,0.003818512,0.013697058
0.000105679035,5.543232e-06,0.00042185187,0.99992895,0.009287447,0.004751891,0.013186425,1.1026859e-06,0.01587823,1.4066696e-05
0.93515074,9.23872e-07,0.0004351139,0.00026729703,5.0336123e-05,0.01079312,0.0026488304,0.0003428161,0.10341138,0.022957683
0.0,0.0,0.0,3.159046e-05,0.0,1.1920929e-07,1.2814999e-06,0.0,0.0,0.99999976
0.0,1.937151e-06,1.4901161e-07,0.9999942,0.0,0.00034046173,0.9999995,0.0,2.3841858e-06,0.0
0.0,2.771616e-06,0.00016713142,5.5730343e-05,0.14807466,1.0,0.0010586977,6.854534e-07,0.0003555119,3.5762787e-07
0.99257493,1.1920929e-07,0.00040358305,0.00010642409,5.4836273e-06,0.027902901,0.0009044111,0.00018879771,0.00037798285,0.0018244684
1.1920929e-07,6.2584877e-07,7.748604e-07,0.00020810962,0.0,4.7683716e-07,1.9222498e-05,1.013279e-06,8.940697e-08,0.9999987
0.023701042,6.556511e-07,0.00010046363,0.00023111701,0.00022396445,0.0017599463,0.0075383484,0.00105232,0.99193,0.00015851855
0.02195847,1.1056662e-05,4.5090914e-05,0.00035107136,1.4543533e-05,0.0008393824,0.0020642579,3.1262636e-05,0.9793558,0.008832753
0.337133,5.6028366e-06,0.00031405687,3.5464764e-05,3.838539e-05,0.0012413561,0.0020763576,9.226799e-05,0.8502004,0.0066080987
1.5199184e-06,1.0818243e-05,2.1129847e-05,6.2286854e-06,6.3478947e-06,0.024513602,0.9989226,0.0006546974,0.0011803806,0.00018593669
0.3429541,6.854534e-07,7.992983e-05,0.00014728308,0.00010871887,0.014570802,0.016793668,0.07048848,0.008569121,0.027423352
0.034306556,0.0011719465,0.5549739,7.6919794e-05,8.34465e-07,0.003346324,0.00044313073,0.005039841,0.00067415833,0.050842762
0.0044846535,2.3245811e-06,4.9889088e-05,0.00021970272,0.00015741587,0.003774941,0.004525602,0.00023397803,0.996613,0.0009824038
8.940697e-08,0.9974413,0.00011521578,0.00020873547,4.2527914e-05,0.0031779706,0.0038113892,0.0030296147,0.0017320812,0.0044092834
1.385808e-05,0.14829177,0.014275283,0.99287176,0.014108509,0.049642295,0.006715119,7.1525574e-07,0.3419155,0.0021731257
0.014701724,0.014752239,0.03948444,0.00049880147,5.5730343e-06,0.0054615736,0.0021191537,7.972121e-05,0.015781581,0.911442
0.35306817,0.0,4.9203634e-05,2.7954578e-05,3.1888485e-06,0.0008930266,0.0007157028,0.9686433,3.4064054e-05,0.0005852282
5.9604645e-08,0.0,6.020069e-06,0.99999356,0.04844442,0.0033088028,0.00047171116,5.9604645e-08,0.64320344,2.9802322e-08
0.9092778,1.0251999e-05,0.0112268925,8.094311e-05,5.3167343e-05,0.0073028207,0.0045116246,0.00055131316,0.087970346,0.009747416
0.9885406,1.7881393e-07,0.00066399574,0.00010371208,1.2665987e-05,0.019470423,0.0049258173,0.00041100383,0.0033904314,0.0026165545
0.9964514,0.0,0.00014391541,3.9726496e-05,1.963973e-05,0.0058280826,0.0016633868,0.0007330477,0.0013654828,0.00042051077
0.9542136,0.0,5.632639e-06,1.1503696e-05,4.5895576e-06,0.008429289,0.00037309527,4.014373e-05,0.17602149,0.0007841885
1.4901161e-07,0.00010254979,0.67264783,0.009208977,0.9842223,0.18347043,0.01616761,0.0006939173,0.94679934,5.543232e-06
3.4570694e-05,4.5895576e-06,0.00044956803,2.348423e-05,1.2785196e-05,0.9999969,0.008954346,0.008921176,0.0028279722,4.172325e-05
0.98540485,1.9669533e-06,0.00020074844,0.0003079474,9.655952e-06,0.0029205084,0.0024134517,0.00017431378,0.0024739802,0.044969678
0.9182819,1.3917685e-05,0.00046870112,0.00055783987,2.259016e-05,0.0029610097,0.004840702,0.00010535121,0.0033328235,0.23919195
0.99921674,0.0,3.066659e-05,3.2186508e-06,5.662441e-07,0.002172321,0.00051647425,0.00068345666,6.7055225e-05,0.00057411194
0.00011861324,3.1858683e-05,1.5199184e-05,0.00010880828,5.9604645e-08,6.4074993e-06,0.00011944771,2.9802322e-07,0.0010055602,0.9998778
0.0020692348,0.024491549,0.4096802,0.0020978153,0.00012481213,0.020386577,0.1584642,8.5800886e-05,0.94367266,0.0097377
0.03956291,0.014407128,0.82705986,0.0017410517,2.6017427e-05,0.01022467,0.0014406741,6.482005e-05,0.016156614,0.033047974
0.0010074675,0.0003067553,0.00011616945,4.518032e-05,5.185604e-06,0.033442706,0.767897,0.0002565086,0.5561778,0.013229907
0.0015553534,5.9604645e-08,0.00013455749,0.00064375997,0.55707884,0.99414295,0.0016092956,0.00023442507,0.0015631914,2.7000904e-05
0.32645136,0.000111192465,0.0007914901,0.00029447675,1.2427568e-05,0.006060213,0.0121741,0.005469322,0.008519828,0.51100206
0.0026324987,2.7120113e-06,0.00015887618,0.9981663,3.4421682e-05,0.016578048,0.014798641,1.385808e-05,0.004489094,7.280707e-05
1.5497208e-06,3.2782555e-07,0.014273435,0.00017631054,0.11465475,0.0014543831,0.03880623,0.014595479,0.99901724,4.1246414e-05
0.99533844,2.9802322e-07,0.00040316582,4.9710274e-05,3.2484531e-06,0.006323844,0.0006543398,1.5586615e-05,0.0027494133,0.0009316802
0.6358061,2.3841858e-07,0.0007683635,0.00020989776,2.1755695e-06,0.001324892,0.0020785928,0.07446864,0.031708598,0.0014992952
0.9791875,1.1324883e-06,0.00042176247,8.752942e-05,1.54078e-05,0.010823131,0.0022886395,6.219745e-05,0.028164983,0.0016236305
0.0015892982,2.0861626e-07,1.3381243e-05,0.0002502799,0.00069871545,0.00088089705,0.005578667,0.00014278293,0.99888355,0.00016203523
1.0251999e-05,0.9945816,0.00241372,0.014638573,6.264448e-05,0.012811929,0.04727754,1.3232231e-05,0.986544,0.0002360642
0.98745835,1.1622906e-06,0.00057062507,3.7401915e-05,3.33786e-06,0.007091582,0.004522085,1.3500452e-05,0.00033390522,0.0008279085
0.28582108,5.635619e-05,0.64555216,0.0026561916,0.002227664,0.008214176,0.008547813,0.00026395917,0.20768163,0.0086914
1.1920929e-07,0.00096422434,0.00036162138,0.99970615,0.0009212792,0.17590898,0.8136611,9.834766e-07,0.91566014,1.4692545e-05
0.96184075,1.1920929e-07,0.0001501143,1.9192696e-05,1.1831522e-05,0.004868239,0.0020751953,0.14719847,0.0006519556,0.0019887388
0.0003028214,5.030632e-05,0.99955684,0.011446893,0.0027420223,0.004842043,0.003458172,0.00054222345,0.13973048,0.0027671456
0.0043089986,0.016456723,0.06326884,0.0015904009,0.00017255545,0.076745,0.842063,0.00010293722,0.18377295,0.011402935
0.002464354,0.0013192594,0.010490835,0.00042381883,5.453825e-06,0.0008517206,0.006446749,2.2292137e-05,0.068214774,0.96180725
0.99343127,3.5762787e-07,0.00011795759,1.9162893e-05,3.8444996e-06,0.0067670345,0.004190415,0.00016885996,0.0017186105,0.007918656
0.19199604,4.8458576e-05,0.007873118,0.000110030174,2.3961067e-05,0.83175933,0.053863883,0.0004182458,0.0014716983,0.0053985715
2.9802322e-08,0.9988876,0.00017046928,0.9903245,0.0001360774,0.01305145,0.0017530918,2.9802322e-08,0.9416648,7.5101852e-06
3.874302e-07,0.0011320412,0.0021051764,0.007991999,5.2124262e-05,0.99975884,0.59931177,1.8715858e-05,0.013018936,0.00046303868
3.0100346e-06,1.7881393e-07,0.9781909,0.00014418364,0.00013244152,0.0007929206,0.00096690655,0.99509144,0.0014282763,7.754564e-05
0.00035327673,2.9802322e-08,3.939867e-05,3.734231e-05,3.7282705e-05,0.0018902123,0.0049087703,0.0026983023,0.9900759,0.0036000907
7.799268e-05,0.9948286,0.00078064203,0.0018785894,2.2232533e-05,0.029217482,0.012239158,0.00014868379,0.038175404,0.01714632
1.1205673e-05,0.00034847856,0.9673609,0.997557,0.00097209215,0.007979929,0.016323715,7.748604e-07,0.91601694,8.165836e-06
0.00024068356,2.0861626e-07,1.9073486e-05,6.648898e-05,3.8564205e-05,0.00092211366,0.008619219,0.021743178,0.9940673,0.001979053
2.3841858e-06,0.00046876073,0.0077934265,0.99634075,0.9801607,0.99903655,0.008340657,8.195639e-06,0.00024145842,2.6911497e-05
0.98123336,5.9604645e-08,0.0009602308,1.41859055e-05,4.529953e-06,0.0028061867,0.00087690353,0.0013256967,0.010165572,0.006372392
0.9978633,0.0,1.680851e-05,6.2286854e-06,6.556511e-06,0.0034311712,0.00096076727,0.00051531196,0.00023052096,0.00017306209
6.714463e-05,6.2286854e-06,0.11159018,0.0016795099,0.0002130568,0.9996917,0.011412352,0.0088609755,0.000495255,0.0022770166
0.19155821,0.0,0.00020799041,1.2755394e-05,7.4505806e-07,0.0014088452,0.00054094195,0.9870015,2.8759241e-05,0.0005044043
0.0,0.0,6.455183e-05,4.646182e-05,9.536743e-07,1.0,4.9471855e-06,4.3213367e-06,0.0026445389,1.5199184e-06
0.06584972,1.7285347e-06,0.00083345175,0.00010603666,1.1473894e-05,0.9982017,0.0023424923,6.106496e-05,0.008960754,0.0003299713
0.0,1.8179417e-05,0.0007505417,0.00048971176,2.4795532e-05,1.0,0.00078326464,3.5345554e-05,0.02764368,5.9068203e-05
0.0010322332,2.7418137e-06,0.0004900694,1.0162592e-05,9.298325e-06,0.0014552474,0.006354749,0.00025188923,0.11452904,0.9559617
1.898408e-05,6.556511e-07,0.9997179,0.003666073,0.00014528632,0.0053379238,0.003384322,0.0655261,0.0014479756,0.0016492307
1.9460917e-05,1.4901161e-07,6.2435865e-05,0.9999518,2.026558e-06,0.0026106238,0.003927171,2.3841858e-06,1.4603138e-06,1.1026859e-06
0.3916993,5.066395e-07,0.00035184622,0.00049749017,0.00066527724,0.00892964,0.0018414557,0.00014474988,0.40156054,0.012183458
0.99881774,0.0,2.9683113e-05,6.765127e-06,6.2584877e-07,0.0040250123,0.0008996725,0.00024136901,6.145239e-05,0.00091695786
0.034344345,5.364418e-07,0.00011846423,0.00017297268,0.00078833103,0.49310204,0.002987653,0.00021612644,0.016831547,0.001290679
0.0269818,2.9206276e-05,0.0012898445,2.2560358e-05,3.1590462e-06,0.12799615,0.19401845,0.008740276,0.15217507,0.0038689077
0.0,0.0,0.9992816,6.556511e-06,7.674098e-05,0.012068808,0.00019797683,5.00679e-06,0.0015760362,5.9604645e-08
0.76668644,2.8908253e-06,0.000682354,4.553795e-05,1.92523e-05,0.233769,0.01227206,0.0010012388,0.0012670755,0.001080662
0.84883326,5.364418e-06,5.942583e-05,9.858608e-05,1.9073486e-06,0.0077732205,0.009675562,5.891919e-05,0.04910019,0.104592174
0.10890061,0.0010959804,0.010331899,7.200241e-05,3.695488e-06,0.004411131,0.0055143237,0.000102460384,0.0123055875,0.7955153
1.2278557e-05,1.7911196e-05,0.00018039346,0.00027751923,2.7120113e-05,0.9898275,0.012347907,0.01003319,0.47979647,0.0011455715
0.33243784,4.4107437e-06,0.000525862,9.506941e-05,1.8775463e-05,0.01800701,0.019291908,0.3124288,0.019367546,0.016809702
0.109945714,4.261732e-06,9.2595816e-05,0.00029993057,3.746152e-05,0.6533865,0.0071130097,0.0009664893,0.11646789,0.008387655
0.9988266,0.0,2.6226044e-05,3.3169985e-05,2.3841858e-07,0.00088223815,0.00019025803,0.001193136,6.645918e-06,3.373623e-05
0.8013114,5.662441e-07,8.127093e-05,0.0011053681,1.963973e-05,0.0054418445,0.0013751984,0.00011959672,0.53236556,0.0003350973
1.0430813e-05,0.11765337,0.6673409,0.0014156103,0.0003556311,0.9933163,0.0064578652,4.6014786e-05,0.01643902,0.00022500753
0.93344223,2.7120113e-06,0.0009061396,2.5838614e-05,6.16312e-05,0.00799492,0.006231576,0.0062366426,0.029212207,0.006798357
0.0,0.0020158887,2.592802e-06,0.99996674,0.0013296008,0.009606391,0.9981945,0.0,0.0001411736,9.983778e-06
0.86686254,2.2649765e-06,0.00010481477,1.3709068e-05,1.0728836e-06,0.027202576,0.020261854,0.010879099,0.0021565259,0.10625112
0.00015488267,0.00020861626,0.0010205209,0.9996784,0.00056800246,0.011826843,0.0065377355,2.6524067e-06,0.008388966,0.00026094913
0.98415977,1.9967556e-06,0.00044345856,1.8686056e-05,2.9802322e-07,0.0051540434,0.0015702844,0.00010842085,0.02096793,0.0047833025
0.001954615,3.427267e-06,0.000112980604,0.0002078116,6.79791e-05,0.005539775,0.006024748,0.0023522377,0.9440952,0.015793562
0.0,0.007903159,0.0003362,0.00015470386,2.4616718e-05,0.9999902,0.00017672777,9.8109245e-05,0.00031349063,1.2516975e-06
0.00050899386,1.9103289e-05,0.0028862655,0.99789286,0.00039169192,0.00991711,0.029659629,9.7721815e-05,0.001167804,0.0006427467
0.9928014,2.3841858e-07,0.00016286969,0.00017416477,3.2424927e-05,0.0056797266,0.0038956404,6.017089e-05,0.0030712187,0.0044204295
8.1807375e-05,0.0,1.6182661e-05,4.056096e-05,0.00049862266,0.0005094111,0.0015366971,0.00039809942,0.9998798,2.2649765e-06
0.07698876,1.7136335e-05,0.9343397,0.00042372942,2.169609e-05,0.008030534,0.011149406,0.011105657,0.008933067,0.0021012425
0.00061905384,0.9994097,0.0039156675,0.000225842,5.3942204e-06,0.01070112,0.0018798113,1.2844801e-05,0.0043390095,0.0014020503
0.9966291,1.1920929e-07,0.00010481477,5.2303076e-05,1.218915e-05,0.0055916607,0.0022880733,0.00051906705,0.002007991,0.00082337856
0.043042243,4.887581e-06,0.0023917854,4.3809414e-06,1.758337e-06,0.0014629364,0.003930092,0.00013664365,0.97630996,0.0054544806
0.9354638,5.9604645e-08,0.00023916364,5.77569e-05,0.0002911687,0.0027299523,0.0017595291,0.0008086264,0.13532218,0.0018543601
1.7881393e-07,0.0036958754,0.9812548,0.5270688,0.0033898056,0.038312584,0.7480238,6.660819e-05,0.9842168,1.2725592e-05
0.041205257,1.4007092e-06,3.3408403e-05,0.00025430322,0.00057426095,0.0012449026,0.004052788,0.00058713555,0.98746026,0.0011818409
0.9914228,1.847744e-06,0.0004967451,6.16312e-05,1.1086464e-05,0.006362915,0.0034141243,0.00010165572,0.00075802207,0.015563905
0.8933703,2.9802322e-08,8.568168e-05,1.32620335e-05,1.7881393e-07,0.0046201646,0.0024674833,0.46776786,5.698204e-05,0.0019462109
0.06352383,1.0609627e-05,0.00043526292,0.000112980604,2.95043e-06,0.023251355,0.96738875,1.1742115e-05,0.00026011467,4.801154e-05
0.74768126,5.0514936e-05,0.0010407269,0.00023043156,4.145503e-05,0.0077171326,0.00303182,7.250905e-05,0.47814244,0.021848768
0.58850104,5.558133e-05,0.0018315017,6.318092e-05,2.2053719e-06,0.0063874125,0.0048238635,2.7656555e-05,0.2524239,0.049705446
0.009092331,2.9802322e-08,1.6987324e-06,4.9471855e-05,1.3589859e-05,0.0016036034,0.0011012852,7.1913004e-05,0.9960262,6.738305e-05
0.89794195,1.7285347e-06,0.00022864342,0.00031667948,6.8217516e-05,0.002681315,0.017173618,0.00771749,0.0012264252,0.089497715
5.6892633e-05,9.405613e-05,0.03649956,0.00040614605,6.3568354e-05,0.0014959872,0.05000648,0.001140207,0.9978766,0.0002694428
0.0,0.0,1.6987324e-06,0.9999847,0.9999974,0.00013116002,0.00013712049,0.0,0.0022579134,0.0
0.8919252,0.0,1.2516975e-05,5.5015087e-05,0.00029993057,0.0028877854,0.0004156232,0.0007227957,0.1866599,0.0029533207
0.9291414,4.4703484e-06,0.013734549,2.3901463e-05,3.874302e-06,0.0055808723,0.0022332668,0.0088662505,0.14438191,0.018105656
0.98449785,0.0,0.00012871623,1.4126301e-05,3.7252903e-06,0.0054841936,0.003160417,0.006156832,0.020223707,0.00061783195
2.6226044e-06,3.8266182e-05,5.954504e-05,0.00014567375,1.1920929e-07,0.01999268,0.99996704,8.106232e-06,0.0025097728,0.0002861917
0.00058454275,1.4901161e-07,0.0012219548,1.66893e-05,0.00017639995,0.004972756,0.0036889315,0.8744805,0.0028874874,0.023442537
1.4394522e-05,2.861023e-05,0.00039625168,0.9989997,1.4781952e-05,0.0023385882,0.0118997395,1.347065e-05,0.00014913082,0.0021166205
1.7374754e-05,0.00012919307,1.0281801e-05,0.00019779801,1.31726265e-05,0.98090214,0.28780806,1.66893e-05,0.033603996,0.0012272596
2.682209e-07,0.000120431185,0.0030269027,0.0023822784,0.3209685,0.017778814,0.9896273,0.00019553304,0.8934616,4.8279762e-05
0.00058323145,2.503395e-05,0.9994495,0.0007916987,0.00038307905,0.007374853,0.005206436,0.00021922588,0.24293059,0.0010949373
0.0013332665,0.0,7.212162e-06,3.2931566e-05,1.809001e-05,0.0002693236,0.0033966303,0.0011546314,0.99920607,3.5375357e-05
0.9909345,1.4901161e-07,0.00012466311,3.71933e-05,1.41859055e-05,0.0058154464,0.004085809,0.0041975975,0.0011930764,0.002822578
0.9699255,3.0696392e-06,0.0007760823,0.00014388561,5.453825e-06,0.0022485554,0.0021802485,0.00032535195,0.0037917197,0.036726594
0.01151976,0.0,1.1742115e-05,0.9997283,4.3839216e-05,0.0013514757,0.0017903745,6.312132e-05,3.7550926e-06,1.680851e-05
0.0016540587,2.4735928e-06,0.00020319223,0.9996567,8.314848e-06,0.008160621,0.01000306,7.7188015e-06,2.2679567e-05,1.937151e-05
0.013719857,8.940697e-08,5.108118e-05,2.0951033e-05,0.00012123585,0.00051534176,0.0025295913,0.00037238002,0.9970249,1.8060207e-05
0.98417413,1.0728836e-06,0.0007353723,0.00031781197,2.6196241e-05,0.005336404,0.0027430058,0.00011917949,0.0047987103,0.011536241
0.99046314,2.9802322e-07,0.002711445,2.0474195e-05,7.2717667e-06,0.006877184,0.0021680593,0.0015868247,0.004218966,0.001829803
0.14459437,2.9057264e-05,0.0002526939,0.00012415648,6.854534e-07,0.015726715,0.46098274,9.009242e-05,0.0038905442,0.0018266737
1.2427568e-05,0.00024226308,0.0003181696,0.00014343858,1.0699034e-05,0.145991,0.7375627,0.050397307,0.0040792525,0.0008008182
0.77189857,1.3202429e-05,0.0008727312,0.00021058321,8.377433e-05,0.05072847,0.0031994283,0.00089251995,0.21949294,0.006666094
0.20988804,1.9878149e-05,0.0016018748,0.00045377016,6.4969063e-06,0.024680704,0.6488156,0.00016820431,0.005653143,0.0012545884
0.0018853545,6.7055225e-06,0.00026503205,6.92904e-05,1.7225742e-05,0.0056973696,0.008923739,0.016477942,0.84341025,0.056886822
0.7659974,5.4836273e-06,0.0014207661,0.00013411045,1.7762184e-05,0.0043007135,0.002225995,0.0020604432,0.5912457,0.008162111
0.00022661686,1.50203705e-05,0.0001347363,0.005641222,0.0017150044,0.0020649433,0.0070095956,0.00015050173,0.99960494,0.00032898784
6.28829e-06,0.9931772,0.0046512783,0.0031058788,0.0002758801,0.014894694,0.012680858,1.4066696e-05,0.99538267,0.00011590123
0.009098798,3.5762787e-06,4.258752e-05,0.000119268894,1.424551e-05,0.0022273958,0.005738348,0.0008068383,0.98873186,0.009717107
8.547306e-05,5.066395e-07,0.9998896,0.00014171004,0.00019854307,0.0070139766,0.0011250675,6.464124e-05,0.95075333,4.172325e-06
8.195639e-06,0.9985275,0.0034052134,0.2915666,0.0010322928,0.018597364,0.0155130625,1.2516975e-06,0.047681212,0.0027166605
0.1585939,1.4901161e-07,1.5854836e-05,5.108118e-05,1.4543533e-05,0.0006366372,0.0023524463,0.00028687716,0.9468205,0.0017278492
0.0,0.9976088,2.4467707e-05,0.00050640106,7.739663e-05,0.012716144,0.005369276,3.3080578e-06,0.9945472,8.004904e-05
0.00058719516,0.9598379,0.0058826804,0.011173099,5.930662e-06,0.025480896,0.069444895,1.66893e-05,0.4337703,0.02171579
0.005351305,0.8165673,0.025040746,0.0023702383,9.3877316e-05,0.011764288,0.0042462945,0.0006788373,0.008812308,0.36540094
0.0,1.552701e-05,0.0044332743,9.444356e-05,7.4505806e-05,1.0,0.0028945804,4.7683716e-07,0.04950893,7.748604e-07
1.4901161e-07,0.9971628,0.0031375587,0.02177921,0.00770396,0.005342394,0.0034598708,9.298325e-06,8.803606e-05,0.0030482113
0.0018088222,0.00068050623,0.9919433,0.0055184364,0.00057679415,0.003709942,0.0031928122,0.0006456375,0.60575294,0.0013278723
0.6391091,1.3917685e-05,0.0014615357,1.859665e-05,1.013279e-06,0.0032580197,0.004148245,0.000867337,5.7160854e-05,0.78433764
1.1622906e-06,0.0016855001,0.017304271,0.9289774,0.20262551,0.99987924,0.0058202446,1.04010105e-05,0.011750847,0.00044763088
0.9739893,1.7881393e-07,0.00010514259,6.425381e-05,0.0009793341,0.010634214,0.0022226274,0.00038853288,0.0054044425,0.0015290678
2.0861626e-07,0.0006964803,0.0010682344,0.999933,0.0013074279,0.04613307,0.6326028,1.7881393e-07,0.035107315,1.3709068e-06
0.13500586,7.748604e-07,0.00055223703,0.00027385354,5.605817e-05,0.0023579597,0.0042007864,0.9434172,0.0007096529,0.008221954
0.9074859,3.2186508e-06,0.00022235513,0.00018960238,6.7949295e-06,0.014740944,0.0053390563,0.013382494,0.031490594,0.006542444
0.9044457,5.9604645e-06,0.029193193,0.00038552284,1.642108e-05,0.0145403445,0.01744011,0.0035919547,0.00071051717,0.056162268
0.99427116,8.940697e-08,0.00013181567,4.196167e-05,2.6524067e-06,0.0029157102,0.0014203489,0.00018966198,0.003625214,0.002274692
0.00011861324,3.1858683e-05,1.5199184e-05,0.00010880828,5.9604645e-08,6.4074993e-06,0.00011944771,2.9802322e-07,0.0010055602,0.9998778
0.10548034,8.940697e-08,3.874302e-05,1.4662743e-05,5.662441e-07,0.006649047,0.017416209,0.61291873,0.1942822,0.014328808
0.00048574805,1.7881393e-06,0.0002169609,0.0011137426,0.014700919,0.0013141334,0.0063331723,2.0682812e-05,0.9991648,0.000118911266
0.00013026595,3.4183264e-05,0.00094679,0.9967941,0.034109443,0.0059326887,0.0065528452,2.4825335e-05,0.008954078,0.0011500418
0.111569285,8.34465e-07,0.0020779073,0.00024715066,0.0042553544,0.003648609,0.0016434491,0.07341519,0.48329207,0.0071429014
6.824732e-06,0.040905356,0.01471737,0.9994694,0.009784341,0.033065796,0.080961674,5.3346157e-06,0.06960091,0.00025179982
0.0017362535,7.4505806e-07,6.9856644e-05,0.00029188395,9.9509954e-05,0.001416415,0.01795742,0.0011356473,0.99913967,8.2165e-05
0.9927574,1.4901161e-07,6.839633e-05,5.698204e-05,7.688999e-06,0.00804621,0.0004912615,0.00023457408,0.033748507,0.0014353096
0.01148054,8.940697e-08,0.0011929274,0.00015541911,2.7120113e-05,0.018541753,0.95936453,0.0016363859,6.827712e-05,8.824468e-05
0.98785675,1.4305115e-06,0.0008929372,0.00012844801,7.033348e-06,0.0034807622,0.0024555326,0.008416116,0.00026133657,0.06539339
0.0,0.00030359626,4.6372414e-05,0.9998473,0.96338236,0.97640395,0.91624665,0.0,0.00038677454,4.7683716e-07
0.004279524,0.0003412068,0.024510771,0.00020831823,0.00012552738,0.0029206276,0.0034439862,0.007929742,0.008519113,0.84884906
0.00013917685,0.0,3.784895e-06,0.99997693,2.9802322e-07,0.00019827485,0.00044947863,3.8444996e-06,9.23872e-07,1.0937452e-05
0.0012195706,2.3394823e-05,1.9460917e-05,7.867813e-05,1.7881393e-07,0.061511487,0.99718165,0.0005149245,0.0013284385,0.0002452135
0.030127138,0.0,8.651614e-05,3.054738e-05,8.940697e-08,0.0013462901,0.0012217462,0.99738896,2.5302172e-05,0.0009546578
0.00040253997,2.7447939e-05,0.00037935376,0.9994663,0.0019622445,0.009481251,0.00708586,8.940697e-08,0.025217116,7.6025724e-05
6.2584877e-07,0.9981629,0.0002477169,0.00063076615,4.4465065e-05,0.047652125,0.0052932203,4.1127205e-06,0.8942009,0.00062802434
7.2568655e-05,1.7881393e-07,1.8179417e-06,0.00022175908,0.0,0.0001385212,0.00150612,5.143881e-05,9.3877316e-05,0.99991864
0.0018966794,1.3649464e-05,0.0005634725,3.0040741e-05,1.8179417e-06,0.0011124611,0.007734239,0.0026155114,0.070017636,0.9527662
0.88313794,1.2516975e-06,0.0002156496,1.1444092e-05,7.897615e-06,0.0035782158,0.0026889443,0.00039291382,0.50462043,0.0013038218
0.00077322125,4.2706728e-05,0.0011957288,0.0005248785,9.23574e-05,0.9998738,0.013834536,2.4795532e-05,0.051286757,0.00090035796
2.9802322e-08,1.7881393e-07,0.0007837415,0.9999832,0.96948075,0.0002964437,0.000295192,5.364418e-07,2.2470951e-05,5.3048134e-06
0.02095896,0.0,1.3023615e-05,1.4603138e-06,2.9802322e-08,0.0017875731,0.00095051527,0.9995439,1.4126301e-05,0.00029572845
0.0036823153,0.0,1.4603138e-06,5.3942204e-06,1.1622906e-06,0.0013498068,0.0021986365,0.00464803,0.99518186,0.00022247434
0.98547304,2.9802322e-08,0.000736922,4.8607588e-05,3.5762787e-07,0.007923812,0.0031987727,0.003575176,4.7832727e-05,0.00050118566
0.050447017,2.643466e-05,0.0005734861,5.2452087e-05,5.662441e-07,0.0013072789,0.018925905,0.7623707,0.16788542,0.004372686
0.0010635853,5.543232e-06,0.99981654,0.012278289,0.0012739301,0.010225773,0.0049802363,0.00029814243,0.018224657,0.00031420588
0.0005398989,1.6391277e-06,0.000718981,4.2676926e-05,0.0014383197,0.0008915067,0.0021501482,1.9311905e-05,0.9993532,0.00019168854
1.7523766e-05,0.003306359,8.493662e-05,0.00010243058,1.0728836e-05,0.08966184,0.98147327,4.300475e-05,0.066594005,0.0025629997
0.06337178,8.940697e-08,1.6331673e-05,6.645918e-06,1.1920929e-06,0.0018655658,0.0028008819,0.0183599,0.9551623,0.0007250309
0.0,2.4735928e-06,0.0011095703,0.00023770332,2.0563602e-06,0.9999997,0.00081688166,0.00015816092,0.0010810494,6.404519e-05
0.9903733,0.0,9.652972e-05,8.6426735e-06,2.0861626e-06,0.01025933,0.0013060272,0.002392739,0.009131789,0.001255244
0.97628874,5.364418e-07,0.00042834878,5.698204e-05,7.7188015e-06,0.007081896,0.0014863908,0.0069933534,0.00090649724,0.0016582608
0.03178838,0.00028043985,0.0041638613,0.00044187903,9.346008e-05,0.002555132,0.0022789538,6.350875e-05,0.96256196,0.030351877
0.0013732612,0.00017106533,0.0017496645,0.00012201071,2.682209e-07,0.008033216,0.9976895,2.3573637e-05,0.00042253733,0.0025674105
0.9987588,0.0,0.00012764335,9.804964e-06,5.9604645e-08,0.0041309,0.00033417344,0.0001270473,0.00039049983,0.00043573976
6.67572e-06,0.00016638637,0.0012978315,0.9999712,4.914403e-05,0.008316904,0.0042088926,1.1026859e-06,0.00044077635,2.3841858e-06
0.002263695,2.9802322e-08,3.451109e-05,4.798174e-06,2.3841858e-07,0.0017153025,0.0014304519,0.99979377,0.00015473366,0.00038060546
0.0059690475,1.1324883e-06,0.00022009015,0.00014001131,2.2917986e-05,0.002535969,0.0099876225,0.00036409497,0.9968063,9.530783e-05
0.016753048,0.01420787,0.013094902,5.0246716e-05,1.8179417e-06,0.011854291,0.003823787,1.6152859e-05,0.72558534,0.04684925
3.695488e-06,0.0,2.95043e-06,1.3709068e-06,3.874302e-07,0.0003771782,0.0006635785,0.9999975,0.00020089746,3.1977892e-05
0.0011712313,0.0009023845,0.00041630864,0.00063946843,6.854534e-07,0.017006308,0.9794302,0.0008213222,0.0015639663,0.058331907
0.048721343,0.0,8.1032515e-05,1.6659498e-05,1.2904406e-05,0.0010023713,0.0036678016,0.0020893812,0.97673965,0.000500381
0.0023740828,0.0030555725,0.0007092953,0.0019533932,2.0861626e-06,0.0012869537,0.01923287,1.013279e-06,0.049303293,0.9752809
0.000114023685,0.009862065,0.027549207,0.02075702,0.0016528368,0.012077928,0.0036726594,2.7626753e-05,0.95649123,0.033760875
0.02123186,6.2584877e-07,0.00013378263,0.00011494756,0.00015109777,0.0010811687,0.0075546205,0.0020483136,0.98431706,0.0015279949
0.00012236834,2.7120113e-06,4.5597553e-05,0.00077933073,0.00013801455,0.9999523,0.01091972,1.7374754e-05,0.0025482774,8.2850456e-05
0.9962357,5.9604645e-08,0.00017374754,3.85046e-05,3.8444996e-06,0.00858748,0.0015459061,0.000100165606,0.00090020895,0.0015266538
0.99555886,8.940697e-08,0.00021111965,1.6152859e-05,1.2904406e-05,0.0055137575,0.0017957389,0.001416564,0.0034666657,0.0015588105
0.9710468,5.364418e-07,0.00016742945,1.692772e-05,1.3709068e-06,0.0055633187,0.00052428246,0.0031912327,0.0024183095,0.0005054176
0.9895765,5.066395e-07,0.019565076,0.00029587746,2.041459e-05,0.013992846,0.00371027,0.0013331473,0.0003412962,0.0020217896
0.00020101666,0.0,1.5228987e-05,0.00024721026,0.0052024424,0.00047588348,0.0021850169,0.00019413233,0.999751,7.390976e-06
0.97798747,1.1384487e-05,0.003176242,0.00012025237,8.404255e-06,0.009729445,0.0045185685,0.00063687563,0.00058960915,0.04937625
0.037381053,4.8577785e-06,0.0012837052,0.002627641,3.9815903e-05,0.99962074,0.014207453,0.00062409043,0.0013207793,0.0016575158
0.502343,5.9962273e-05,0.00085666776,0.000107616186,1.0311604e-05,0.009835333,0.0040409565,0.0003068745,0.8211497,0.011647284
0.33145273,0.0,0.00036126375,4.1872263e-05,1.0728836e-06,0.0067332983,0.0011336505,0.8880754,9.611249e-05,0.00952974
0.00044858456,0.99010956,0.019180954,0.0014722943,2.0980835e-05,0.0036515296,0.00085413456,0.00089627504,0.05271828,0.017298222
0.0,0.9999831,0.00017559528,0.0005507171,0.0010932684,0.0040815473,0.00022569299,0.000114917755,0.044290185,0.0001938641
0.9966079,0.0,0.00010544062,2.4080276e-05,3.1292439e-06,0.0042417943,0.0012191236,0.002470374,5.9723854e-05,0.0015720725
0.00010710955,1.0281801e-05,0.00017529726,0.028523713,0.020161688,0.99929917,0.006023258,6.210804e-05,0.09957969,9.831786e-05
0.9977889,0.0,8.85725e-05,1.4543533e-05,5.066395e-07,0.0068534613,0.0003413856,0.0001860261,0.002075076,0.0012758076
8.4728e-05,1.847744e-06,0.0008365214,0.99972093,0.90902746,0.0034087896,0.0010181069,7.4505806e-07,0.23616958,8.583069e-06
0.009122044,0.00013881922,0.0011252463,0.000233531,9.8228455e-05,0.0029194355,0.011863112,8.612871e-05,0.981036,0.03948754
0.9439819,0.0,3.144145e-05,5.6922436e-06,8.940697e-08,0.00075119734,0.00068849325,0.42224032,4.6372414e-05,0.0006095767
0.048267186,1.4901161e-07,2.3394823e-05,3.6388636e-05,4.056096e-05,0.003123492,0.004564643,0.006493926,0.97911125,0.0009827912
0.9941175,8.34465e-07,0.00036409497,0.00010430813,1.0728836e-05,0.009986252,0.003937185,8.422136e-05,0.0012450516,0.004617244
0.005194694,0.00024184585,0.010537803,0.0006208122,0.0008100867,0.0039111376,0.018730521,0.00039684772,0.9866369,0.0059497952
0.00054600835,4.0590763e-05,0.000582695,0.99923164,2.5182962e-05,0.014379859,0.008958727,2.8312206e-06,0.046987683,0.00017881393
0.9902892,2.3841858e-07,0.00031927228,5.3942204e-05,7.1823597e-06,0.0056494176,0.0011966228,0.00060230494,0.0034013689,0.00962919
0.028746456,6.9737434e-06,0.00029852986,0.0001860559,0.0004375875,0.0017201304,0.0029850006,5.811453e-06,0.9850619,0.0012821257
8.940697e-08,4.172325e-07,0.00017297268,4.5895576e-06,1.3113022e-06,1.0,0.0011081398,2.887845e-05,0.0022757351,1.1712313e-05
0.89699036,0.0,5.0902367e-05,3.2901764e-05,4.568696e-05,0.0059969127,0.0013508201,0.0007934272,0.28660554,9.211898e-05
0.0035543144,2.5451183e-05,0.000113755465,0.0004236102,0.00010070205,0.0018003583,0.0034713745,2.771616e-06,0.9883194,0.016866744
0.00056263804,1.4007092e-06,0.0003118813,0.99983275,2.95043e-06,0.005044669,0.006303519,6.735325e-06,3.9190054e-05,3.6358833e-06
0.9884238,0.0,3.0875206e-05,6.7055225e-06,2.7626753e-05,0.011484653,0.00076428056,0.008047253,0.00068196654,4.8041344e-05
5.236268e-05,5.5283308e-05,0.0005070865,0.9989524,0.005017251,0.028627962,0.0940499,1.5944242e-05,0.0004990697,0.00079476833
0.00048223138,0.00092986226,0.008862823,0.99904644,0.045761317,0.0135141015,0.019588351,5.0365925e-06,0.0600096,0.00017902255
1.5228987e-05,2.3543835e-06,7.033348e-06,1.6987324e-06,2.9802322e-08,0.014745444,0.9518416,0.94274646,0.0005771518,0.0003860891
0.00065621734,2.0861626e-07,5.2154064e-05,4.351139e-06,3.2484531e-06,0.002711773,0.0045254827,7.31051e-05,0.26082173,0.8379736
0.0036839843,7.554889e-05,0.004401207,0.9962287,0.034119844,0.016601175,0.004327148,5.7548285e-05,0.006302178,0.00044843554
0.44773638,1.4394522e-05,0.00072830915,0.00031086802,0.00013357401,0.0035395324,0.0023270845,9.405613e-05,0.7787736,0.008766472
5.066395e-07,0.99741054,0.0048758686,0.7966946,0.0005316138,0.010514379,0.037189215,1.66893e-06,0.9848452,8.317828e-05
8.383393e-05,0.0,7.8082085e-06,0.9999787,0.00078970194,0.001981467,0.0010653734,5.9604645e-08,7.1674585e-05,1.937151e-06
0.0558002,9.030104e-06,5.0634146e-05,1.6480684e-05,7.1525574e-07,0.0020310879,0.0023756921,0.00013801455,0.01942584,0.8752646
1.9967556e-06,0.0,6.696582e-05,0.9995024,6.741285e-05,0.0005968511,0.0013166964,0.00017422438,4.3213367e-05,7.098913e-05
4.1007996e-05,0.00021857023,2.503395e-06,1.92523e-05,2.682209e-07,0.013679236,0.98194396,0.00045195222,0.16296932,0.0062893033
0.01011923,0.00013002753,0.96047866,0.0020240247,0.004124433,0.009814799,0.009768158,0.00019577146,0.0690417,0.01568073
0.9070157,8.940697e-08,7.06017e-05,4.827976e-06,3.8146973e-06,0.00661397,0.005598873,0.01962477,0.0011785328,0.06395796
0.91213524,2.8908253e-06,0.0003950894,2.6017427e-05,1.3113022e-06,0.0075858533,0.0012877882,0.0011844337,0.23456073,0.018324882
4.61936e-06,1.8775463e-06,0.0022877157,0.0003579557,1.385808e-05,0.9999992,0.0017611384,0.0026590228,0.00019732118,0.00010305643
7.1525574e-07,0.0,0.0,2.1547079e-05,0.0,2.1666288e-05,0.00010856986,0.0,3.695488e-06,0.9999887
0.9939436,0.0,3.0636787e-05,9.179115e-06,7.1525574e-07,0.0067338347,0.0003812015,0.0011514425,0.0013304949,0.0005223155
0.0034170747,3.2782555e-07,4.684925e-05,0.000113487244,0.00039064884,0.0018394887,0.0021321476,0.00020641088,0.9984045,0.00022280216
0.9522346,8.6426735e-07,0.0012609363,0.00012782216,8.440018e-05,0.009021491,0.0019244254,0.0006849766,0.0023804605,0.026039898
0.9310687,1.1920929e-07,4.6372414e-05,4.9948692e-05,2.488494e-05,0.0040643215,0.0028856993,0.0012450516,0.13326553,0.0013265908
9.256601e-05,0.01114884,0.00043913722,0.00024491549,2.3633242e-05,0.022800267,0.9843825,8.764863e-05,0.047709286,0.0035791695
0.5104486,9.679794e-05,0.71999615,0.0002834499,0.00015440583,0.0140964985,0.0075214207,0.0069113076,0.003977418,0.0099107325
0.9445063,2.9802322e-07,0.0015330315,8.1300735e-05,5.0216913e-05,0.0040046275,0.001796633,0.05596012,0.00022998452,0.006862521
5.7011843e-05,4.7683716e-07,7.4207783e-06,0.0006018877,1.3530254e-05,0.00065150857,0.003878057,0.00042915344,0.00051650405,0.995911
0.00037166476,0.96686983,0.0034423172,0.013536215,2.9712915e-05,0.010847688,0.011515319,1.4662743e-05,0.30712432,0.11543727
0.9776296,6.2286854e-06,0.000556767,9.059906e-05,4.23193e-06,0.0072691143,0.0064894557,0.0001989007,0.0008226931,0.077335805
0.00029295683,0.0015406013,0.00461185,0.99871665,0.37065572,0.014671117,0.014351279,5.8710575e-06,0.14071354,0.0010300577
0.5097225,7.867813e-06,0.82367575,0.0002861023,5.272031e-05,0.00427258,0.003074795,0.00087720156,0.028404623,0.0024965405
0.118869305,8.940697e-08,2.8282404e-05,1.1712313e-05,8.46386e-06,0.0020315647,0.0023944378,0.0028092563,0.9178908,0.0005027354
4.4465065e-05,0.029280573,0.67939734,0.9383433,0.0002837777,0.010126084,0.0753001,3.7252903e-06,0.9927631,0.00048097968
0.46922785,3.695488e-06,0.008507341,0.00067052245,4.544854e-05,0.007889241,0.0080117285,0.4961189,0.0053681135,0.018754184
0.0051771402,1.6987324e-05,0.90375423,0.000410676,0.0001398027,0.0054623187,0.00864175,0.00046178699,0.9848115,0.00014063716
0.96829295,2.95043e-06,0.0005545318,9.483099e-05,3.9756298e-05,0.01999256,0.005494505,0.00020584464,0.0037876964,0.013593137
2.0861626e-07,0.0055929422,0.00517416,0.9975404,3.3318996e-05,0.0046415627,0.51234674,9.23872e-07,0.88150185,7.674098e-05
8.940697e-08,2.682209e-07,0.00012558699,0.9999952,5.8710575e-06,0.001085192,0.004832566,1.4901161e-07,2.336502e-05,3.5762787e-07
0.010029227,0.0010432005,0.0036911964,0.00012898445,1.8954277e-05,0.0049033165,0.0188739,0.0006162524,0.9893923,0.004358828
0.0,0.95836735,0.0012500584,0.99938333,0.2514259,0.5385394,0.024785519,1.5199184e-06,0.08630484,5.662441e-07
0.9722895,7.1525574e-07,0.0007003844,0.00010305643,9.23872e-06,0.012562841,0.0058163404,0.03243786,0.0011282563,0.0055263937
9.661913e-05,0.94040096,0.020639122,0.004315138,8.010864e-05,0.027270526,0.07785237,2.6226044e-06,0.7608839,0.024388433
0.99678564,2.9802322e-08,0.00010484457,2.425909e-05,1.6987324e-06,0.009302855,0.0010784864,5.787611e-05,0.0009652674,0.0006824732
0.0035861433,3.33786e-06,0.00016596913,3.606081e-05,0.00035724044,0.0014173687,0.004278958,4.7385693e-06,0.99597657,0.00028312206
0.0006123185,0.0026295483,0.09480053,0.0002284646,0.00014695525,0.001778096,0.013661861,2.4497509e-05,0.9929744,0.0064490736
5.158782e-05,0.98908603,0.0014694333,0.6887925,0.00020825863,0.007044703,0.0039681494,7.748604e-07,0.14868802,0.009713739
0.9230305,4.4703484e-07,0.00022295117,6.15716e-05,4.3183565e-05,0.009423614,0.003840685,0.004376292,0.18057364,0.0028966963
0.0,3.8802624e-05,0.0002579093,0.12980595,9.9629164e-05,1.0,0.0009048581,3.695488e-06,0.0019067228,2.7447939e-05
0.98378915,2.9802322e-08,0.00027939677,8.493662e-06,5.364418e-07,0.0030780733,0.0013300478,0.020493,5.5611134e-05,0.012403607
3.1232834e-05,2.9802322e-08,1.6093254e-06,2.0861626e-07,0.0,0.00024393201,0.00072818995,0.9853833,0.9965302,5.811453e-06
0.00027298927,0.9482542,0.016127825,0.010906994,7.125735e-05,0.01886326,0.027842522,1.4126301e-05,0.731633,0.059880167
0.9619406,3.516674e-06,0.0016955435,8.702278e-06,1.4901161e-07,0.005737722,0.0030094087,0.0005375147,0.0003257692,0.08971599
3.3915043e-05,0.00033292174,0.0010466576,0.0024771094,0.00022041798,0.99975765,0.06652877,2.18153e-05,0.2911572,0.00052684546
0.0005207658,5.146861e-05,0.0006676018,0.00031161308,0.0006836057,0.0032631755,0.007948667,2.8252602e-05,0.999259,0.00052425265
1.5765429e-05,0.9650943,0.0980849,0.25157768,0.0024752915,0.059624553,0.0243932,4.3809414e-06,0.47091606,0.012676269
8.046627e-07,0.015952736,0.0100774765,0.28768462,0.017656833,0.9944477,0.026873976,4.4375658e-05,0.0044289827,0.022117376
4.23491e-05,5.9604645e-08,0.00016638637,5.9604645e-08,5.9604645e-08,0.00036728382,0.0003723204,0.08455023,0.0055141747,0.94632447
0.22179216,2.0593405e-05,0.0011245608,0.78907925,0.0010658801,0.0061500967,0.0060862303,0.00049862266,0.17235214,0.0075644553
0.0014657676,1.4901161e-07,2.1249056e-05,1.23381615e-05,1.1444092e-05,0.0007160008,0.010819137,0.0029609203,0.99867976,4.6670437e-05
0.005654514,1.707673e-05,0.0005761981,0.00062435865,9.5009804e-05,0.0018506348,0.013214141,0.00027996302,0.99666476,0.00095534325
4.1127205e-06,9.536743e-07,0.00011691451,0.9999953,0.0005097091,0.0089253485,0.008282542,8.940697e-08,0.00030007958,2.1755695e-06
1.937151e-06,1.1920929e-07,0.000726223,5.3048134e-06,4.8279762e-05,0.9998537,0.009531647,0.00015461445,0.12135857,0.0005131364
0.0019811988,0.000451535,0.99007833,0.0006894171,0.00062534213,0.001470685,0.0010469854,2.82228e-05,0.511524,0.003394425
0.800017,2.977252e-05,0.0013766289,0.00014847517,1.6212463e-05,0.002094835,0.0020632744,0.00068208575,0.062262446,0.04988709
0.0,0.007611543,2.6524067e-06,1.0550022e-05,2.1904707e-05,0.0076532066,0.99770033,1.0967255e-05,0.0018807054,0.0007483661
0.99751484,2.0861626e-07,0.00023186207,2.7090311e-05,1.5199184e-06,0.011344463,0.002485931,0.00018116832,0.0012486577,0.0018515587
3.7044287e-05,1.2814999e-06,0.00017735362,0.99993026,4.1991472e-05,0.012389332,0.017988354,8.6426735e-07,0.0053256154,3.2484531e-06
4.1007996e-05,2.3841858e-07,9.387732e-06,3.427267e-06,2.9802322e-08,0.007542759,0.9974501,0.00013694167,0.004219681,0.021190792
0.00035196543,4.172325e-07,3.629923e-05,0.000104784966,0.00014013052,0.0011579692,0.004378617,8.481741e-05,0.9997706,7.587671e-05
0.074252695,0.00010821223,0.0002284944,0.00037428737,2.3126602e-05,0.0060611665,0.007976949,8.380413e-05,0.8754456,0.060828954
3.311038e-05,0.56550014,0.06600407,0.973512,0.0016040504,0.011772096,0.034427255,2.4735928e-06,0.88135386,0.0070922673
0.9970033,1.7881393e-07,0.00010064244,2.9742718e-05,3.5762787e-06,0.008808434,0.0022988617,0.000649035,0.00044301152,0.0026771724
0.9951069,0.0,0.00039875507,3.761053e-05,9.089708e-06,0.0027404726,0.0005902052,0.0026177168,0.00299564,0.00038850307
0.95394206,8.34465e-07,0.00020763278,4.8279762e-05,6.645918e-06,0.0049550235,0.0044537187,0.0003618002,0.016113728,0.023976654
0.049289614,3.1888485e-06,8.004904e-05,2.7120113e-05,0.0001603663,0.001269728,0.0034974217,0.00019994378,0.9611076,0.011581421
0.65078676,1.8328428e-05,0.002260834,0.00048160553,0.0002810955,0.0123826265,0.008679062,0.0005386472,0.6459117,0.0027795732
0.0012878776,1.4901161e-07,0.0001885593,9.804964e-05,0.00013276935,0.0028027892,0.0071047246,0.99865824,0.0040544868,0.00087064505
0.99273145,3.874302e-07,0.0003142953,0.00020951033,1.4573336e-05,0.012748063,0.0035214424,0.0001924932,0.0020512342,0.0032995045
3.5464764e-06,0.0069997907,0.8539417,0.23988447,0.009170383,0.98707557,0.011993527,0.00017392635,0.29564255,0.0016028881
0.46049988,1.2516975e-06,0.00025245547,0.00016638637,5.3435564e-05,0.0027902126,0.003556788,0.0044594407,0.7737148,0.0018896163
0.20813784,0.0001475811,0.005484879,0.00048035383,6.568432e-05,0.0028460622,0.011335701,0.0007172227,0.15953106,0.24483609
0.01343438,4.172325e-06,0.0012145638,0.000839293,0.0065187514,0.0024807453,0.004360318,0.00013700128,0.97948813,0.0038462877
0.0023739338,6.347895e-05,0.00020727515,0.00078961253,0.0002168715,0.006212294,0.01258707,0.00024271011,0.99759203,0.0019876063
0.025612563,0.00031980872,0.0010337532,0.025111526,0.000369668,0.021676779,0.44984245,2.130866e-05,0.00024110079,0.0067916214
0.11570826,1.5586615e-05,0.00012758374,6.839633e-05,1.1026859e-06,0.004157692,0.008743197,0.00086319447,0.9444921,0.024342567
0.95261383,5.4240227e-06,0.00017401576,0.00011265278,8.5532665e-06,0.0073537827,0.0062257946,0.00022986531,0.0018312931,0.13772032
0.9892185,4.172325e-07,0.00018531084,0.0001578033,7.95722e-06,0.003658384,0.0017722547,0.0008302331,0.00043597817,0.035744935
0.0051576495,0.0,7.688999e-06,3.6358833e-05,6.467104e-06,0.0009289682,0.00232023,0.9989153,0.00014552474,0.0008163154
0.013541222,1.5467405e-05,0.0009964406,0.0010566413,3.33786e-05,0.994752,0.0016076267,9.000301e-06,0.00025570393,0.0059027374
0.015068263,8.940697e-08,6.240606e-05,1.40964985e-05,1.0460615e-05,0.0042393804,0.0073209405,0.0041893125,0.965312,0.000746876
0.023309022,0.00014853477,0.007310033,0.00025749207,0.00014656782,0.0022116601,0.005328834,3.6984682e-05,0.96986496,0.024086595
0.0005507171,0.00014218688,0.9554038,0.00036931038,0.000101953745,0.0058068335,0.015912503,0.0001501739,0.95490396,0.0015045702
1.642108e-05,0.0020799637,0.0005890131,0.9982365,0.00016272068,0.029827207,0.13838741,8.34465e-07,0.3913339,0.00021073222
0.00012162328,6.452203e-05,0.008435816,0.0004401505,9.834766e-07,0.00046035647,0.0037164688,0.0014309287,0.00010693073,0.9932543
0.11154437,0.00031748414,0.007080674,0.0003503263,4.553795e-05,0.0036298335,0.009334713,6.702542e-05,0.32689407,0.37340707
0.008207679,2.2649765e-06,0.0003271997,8.2820654e-05,5.1110983e-05,0.021769583,0.035384715,0.0010368526,0.073584646,0.15318015
0.9841967,1.1920929e-06,0.0017904341,9.948015e-05,3.632903e-05,0.00279665,0.0043284595,0.0040986836,0.00037774444,0.037975222
0.9883307,2.0861626e-07,0.00013822317,3.5256147e-05,1.6182661e-05,0.0039986074,0.0018417239,0.0022853315,0.0023607016,0.007604867
3.8146973e-05,0.9695449,0.0008902848,0.0013330579,9.506941e-05,0.018722355,0.028154582,7.635355e-05,0.4005353,0.0006093085
0.0015632808,6.1392784e-06,0.0002079606,1.692772e-05,2.8908253e-06,0.0028382242,0.010583073,0.000125736,0.17651764,0.91734326
1.2397766e-05,4.0233135e-06,0.99861884,0.001958251,0.024526715,0.007996887,0.0031445622,0.0004989207,0.9830067,1.180172e-05
0.9045247,2.2351742e-05,0.26037884,0.000104010105,4.7266483e-05,0.012592912,0.0037466586,0.02776876,0.008913696,0.0056530535
0.00014355779,0.05732277,0.030120641,0.88044876,0.00015002489,0.0048906505,0.013354152,6.3180923e-06,0.7604147,0.08969459
1.7881393e-07,0.99390566,0.0027346015,0.00010558963,0.002987802,0.10690498,0.0015850961,0.00014525652,0.498334,0.00035265088
0.001192987,1.9967556e-06,3.72231e-05,0.00026661158,0.00013536215,0.0015542209,0.013763636,0.00018543005,0.99883723,0.00022175908
0.00020697713,1.5705824e-05,0.9995215,0.0019908547,0.00024586916,0.0065634847,0.002049923,0.00044053793,0.9004694,1.7672777e-05
0.28416675,5.364418e-07,1.1652708e-05,0.00011226535,4.1127205e-06,0.008776665,0.0024304092,0.040355653,0.70556396,0.0016082525
0.3788719,5.662441e-07,0.00015449524,3.4570694e-06,4.7683716e-07,0.0009481609,0.0027593374,0.3627981,0.013327748,0.07313979
0.970509,0.0,5.6147575e-05,1.9073486e-05,0.0,0.00029575825,0.0005147755,0.22490817,1.6391277e-06,0.00013807416
0.0,3.784895e-06,9.9122524e-05,0.00024318695,8.59797e-05,1.0,0.0022491813,3.1888485e-06,0.9809402,3.874302e-07
0.7350925,2.0861626e-07,0.00038719177,1.0341406e-05,6.1690807e-06,0.0038095713,0.0031346679,0.0016411245,0.6407572,0.001177609
0.0056465566,0.0,1.3500452e-05,4.735589e-05,4.374981e-05,0.0006479919,0.002402693,0.0095478,0.9926702,0.0004438758
0.18444467,1.0311604e-05,0.00023290515,6.0796738e-05,2.8282404e-05,0.0064907074,0.010410011,0.0016380548,0.83313227,0.07389292
0.0,4.851818e-05,0.0003593564,0.0006611049,6.2823296e-05,1.0,0.000120162964,3.2782555e-06,0.79068893,1.8179417e-06
2.9802322e-08,0.006530434,0.00066810846,0.13626066,0.010521203,0.9605427,0.029944986,1.847744e-06,0.0012054741,0.013684839
0.7283015,2.0712614e-05,0.0031692982,0.00021576881,6.2286854e-06,0.0021375716,0.003345549,0.01105842,0.0013498366,0.5016237
7.82609e-05,0.0,0.00017482042,5.3733587e-05,2.0563602e-06,0.0010747612,0.0021604002,0.9996309,0.00034296513,0.0056862235
0.0,0.0,7.867813e-06,4.8458576e-05,0.99983114,3.46303e-05,0.00040906668,2.682209e-07,0.7178241,6.508827e-05
0.0,0.0014376938,0.036209077,0.00016579032,0.00090789795,0.91850495,0.9122015,0.00038677454,0.017794073,0.0006349683
0.9968167,0.0,0.00017935038,1.6868114e-05,4.6491623e-06,0.0045291185,0.00026506186,0.00028839707,0.0027771294,0.00070104003
0.00034672022,8.34465e-07,0.00019204617,0.9999039,0.0001577735,0.024905443,0.0047696233,1.296401e-05,0.0046076477,9.179115e-06
0.0027368367,2.7090311e-05,0.14163676,0.0013558567,0.019042939,0.003836006,0.006356299,0.0018643141,0.9453412,0.0057734847
0.040392965,2.7239323e-05,0.8120067,0.0007915795,0.010548949,0.005418986,0.0068805814,0.024221718,0.41789487,0.0075508356
0.0005504489,0.00026527047,8.749962e-05,4.568696e-05,3.5762787e-07,0.015038669,0.9936608,0.0010073483,0.016227633,0.002718687
0.9275135,2.9802322e-07,0.0003811717,1.13248825e-05,9.179115e-06,0.0032412708,0.0020352304,0.00043472648,0.12907022,0.00882712
3.5762787e-07,0.0005249679,0.0015255213,0.0032228827,0.00019904971,0.84760666,0.95321167,0.00012716651,0.028327584,0.0021787286
1.1920929e-06,2.0325184e-05,2.3305416e-05,0.0008921623,7.95722e-06,0.9917817,0.9258584,1.4483929e-05,0.003706038,0.00021713972
0.9923302,1.7881393e-07,8.845329e-05,0.00022053719,4.9561262e-05,0.019121915,0.0033681989,0.0009353459,0.00088486075,0.0035072863
0.15136135,0.00015580654,0.00032761693,0.00031504035,5.5730343e-06,0.0057525337,0.01625356,0.00021886826,0.023521662,0.75033593
0.00037154555,0.0021396577,0.0016483068,0.005631566,5.2839518e-05,0.98088455,0.029998094,2.1219254e-05,0.17749548,0.11408594
0.9815967,5.9604645e-08,0.00014081597,4.082918e-06,1.0728836e-06,0.0038824677,0.0019963384,0.045082748,0.0012307465,0.0028453767
0.0,0.0,0.99982107,0.9985912,0.0016629696,0.010582477,0.00092983246,6.2584877e-07,0.10890463,3.5762787e-07
0.2680527,2.7418137e-06,0.0001039803,5.3077936e-05,3.59118e-05,0.0059895813,0.00822112,0.0007226169,0.84661335,0.012598842
0.56352264,0.0,0.00015184283,5.4597855e-05,2.0861626e-07,0.0029261112,0.002815485,0.8753855,0.00012025237,0.001229316
0.0027390122,0.0,3.862381e-05,1.0609627e-05,4.23193e-06,0.002005577,0.004561454,0.984299,0.00041395426,0.03847778
0.39020514,3.2782555e-06,0.0003027022,7.030368e-05,9.387732e-06,0.0015260875,0.0033459067,4.592538e-05,0.6462322,0.03277558
0.86922646,1.090765e-05,0.0010158122,3.5077333e-05,5.453825e-06,0.009688288,0.0029355586,0.0025539398,0.0028680265,0.12139657
0.00044360757,1.0192394e-05,3.1083822e-05,9.512901e-05,5.4240227e-05,0.0042537153,0.0018921196,0.0,0.008752674,0.9811833
0.0011931956,3.695488e-06,0.0004723072,0.014494151,0.99579895,0.0023899674,0.0035826564,8.34465e-07,0.03269592,0.0076926053
0.9902097,1.8775463e-06,0.001514405,3.6597252e-05,8.6426735e-07,0.004496187,0.002760291,0.0020314753,0.00010046363,0.025400072
0.00066658854,0.024148196,0.05831051,0.0036699474,5.0842762e-05,0.014149249,0.3808049,7.599592e-06,0.5775317,0.01509285
0.9782398,1.7881393e-07,0.00013184547,7.516146e-05,2.5510788e-05,0.007066548,0.0018766224,0.0005416572,0.14656079,0.00041019917
0.005096525,3.1977892e-05,0.000102728605,0.00044748187,0.00012075901,0.0030210912,0.009292364,5.6028366e-06,0.9721223,0.008372724
1.7881393e-07,0.9806758,0.000980705,0.99426603,0.0003617108,0.022481084,0.029424101,2.682209e-07,0.937055,8.9883804e-05
0.99727,0.0,7.215142e-05,2.1904707e-05,5.4240227e-06,0.010119051,0.0006198287,0.0016966164,0.001394093,0.0008714199
0.14201489,1.4007092e-06,0.0006493628,5.096197e-06,2.0861626e-07,0.0018252134,0.0012763739,0.0031316578,1.2904406e-05,0.74348474
0.99119776,0.0,7.739663e-05,5.841255e-06,1.5199184e-06,0.0046806037,0.0023682714,0.011635661,0.00046384335,0.00013074279
0.9377117,3.0994415e-06,0.00030195713,0.00010830164,9.000301e-06,0.0143383145,0.0074331164,0.00086188316,0.058770925,0.055523634
0.30210707,7.390976e-06,0.00033828616,0.00037786365,8.919835e-05,0.010460019,0.0046291947,5.3733587e-05,0.5948481,0.005100012
0.98007894,2.9802322e-08,0.00092580914,3.2305717e-05,7.8082085e-06,0.0113272965,0.0022842586,0.003539592,0.0007596612,0.0017972887
0.9940828,1.4901161e-07,3.567338e-05,1.731515e-05,1.1622906e-06,0.016051978,0.0028287172,0.0009961426,0.0028242767,0.001891762
0.0023740828,0.0030555725,0.0007092953,0.0019533932,2.0861626e-06,0.0012869537,0.01923287,1.013279e-06,0.049303293,0.9752809
0.00011861324,3.1858683e-05,1.5199184e-05,0.00010880828,5.9604645e-08,6.4074993e-06,0.00011944771,2.9802322e-07,0.0010055602,0.9998778
0.0,0.9998915,0.00038009882,0.83371985,0.0044530034,0.0067869723,0.0007163584,3.5732985e-05,0.0073931515,3.695488e-06
1.8179417e-06,0.99832475,0.044549882,0.000246495,0.0010547936,0.034480512,0.0015884936,7.626414e-05,0.09441313,0.00041386485
4.7922134e-05,1.1026859e-06,0.009485424,0.0004886389,0.9981895,0.0012715161,0.00172171,0.0004605055,0.61521804,5.3077936e-05
0.9978566,1.7881393e-07,0.00021979213,1.5556812e-05,1.0430813e-06,0.0055197477,0.0013192594,0.0052299798,0.00016108155,0.0010301173
0.00014284253,5.2124262e-05,0.00018307567,0.0001321435,2.7179718e-05,0.0031670034,0.5092606,0.00010076165,0.9872397,0.00047758222
0.99104184,0.0,0.00033390522,5.8352947e-05,2.771616e-06,0.007050127,0.00926137,0.0009191632,0.0010415614,0.001594007
1.2993813e-05,0.0,0.00056535006,0.99995923,0.0010174811,0.0003707409,0.00027650595,5.00679e-06,2.002716e-05,4.8577785e-06
2.5123358e-05,4.2945147e-05,0.9336599,0.0020822287,0.12338799,0.008400947,0.013143241,4.9710274e-05,0.9905995,0.00015968084
0.0025095344,0.00015127659,0.010268152,0.0020300448,0.0001052022,0.00032168627,0.0033557713,0.0015842319,7.122755e-05,0.94777465
0.00011861324,3.1858683e-05,1.5199184e-05,0.00010880828,5.9604645e-08,6.4074993e-06,0.00011944771,2.9802322e-07,0.0010055602,0.9998778
2.1100044e-05,8.940697e-08,4.8547983e-05,0.9998306,3.1590462e-06,0.0027556121,0.005884081,1.7344952e-05,8.356571e-05,6.0796738e-06
0.9900086,3.5762787e-07,0.00018811226,3.1232834e-05,9.536743e-06,0.007366717,0.0014635623,0.01862967,0.0005581081,0.0057028234
0.0597305,1.4901161e-06,0.00018292665,0.00020685792,8.800626e-05,0.0055297017,0.009359777,0.003554225,0.98473215,0.00020489097
0.9975093,0.0,9.1701746e-05,1.3113022e-06,5.9604645e-08,0.001568228,0.00054991245,0.00031384826,3.7163496e-05,0.00014781952
0.9962417,8.940697e-08,9.6559525e-05,1.3053417e-05,4.0233135e-06,0.015745431,0.003112793,0.00023922324,0.00041660666,0.0012957752
0.00030723214,2.5451183e-05,9.801984e-05,4.3570995e-05,3.5762787e-07,0.0053653717,0.9991324,5.9336424e-05,0.004754305,2.0831823e-05
0.019543707,3.1232834e-05,0.0005090833,0.119210064,0.100703955,0.006619692,0.010412574,0.0002413094,0.43116787,0.020263553
0.012378514,3.0398369e-06,6.082654e-05,4.4375658e-05,6.9737434e-06,0.004917532,0.06166336,9.2417e-05,0.93346983,0.0016158521
0.992398,5.9604645e-08,6.2286854e-05,1.4275312e-05,6.2584877e-07,0.0057153404,0.0018085539,0.02326104,0.00012898445,0.0030628443
1.1622906e-06,0.0057943165,0.44494972,0.9988464,0.00035709143,0.064700186,0.0070298314,5.9604645e-08,0.4890521,2.2649765e-06
0.0,0.0012207329,0.00024294853,0.9998896,0.00014644861,0.030562103,0.93011355,0.0,0.99744904,3.5762787e-07
3.1292439e-06,0.00011768937,0.96803564,0.9998265,0.0014244914,0.0050341487,0.002405554,1.2516975e-06,0.005737841,1.0669231e-05
0.93632734,4.082918e-06,0.009446263,3.0308962e-05,2.5987625e-05,0.004189968,0.003118813,0.0024922788,0.052144468,0.009712994
0.020459175,6.556511e-06,2.1845102e-05,0.0002439022,3.3676624e-05,0.0055062175,0.003725946,0.00013133883,0.98461354,0.0072036684
0.06323105,0.00014859438,0.00066787004,0.00033029914,4.476309e-05,0.0059013367,0.005505204,0.00010743737,0.8975787,0.074545056
0.027160555,5.662441e-07,0.00015246868,0.0001629889,3.877282e-05,0.002646923,0.0055922866,0.0008395612,0.9913014,0.0010338128
0.9935778,7.1525574e-07,0.00012722611,7.9751015e-05,6.5267086e-06,0.00669989,0.004657656,0.00028544664,0.00033158064,0.0073381364
0.0,0.00935179,0.001765579,0.9998517,3.5345554e-05,0.119963765,0.16198891,0.0,0.98720324,1.013279e-06
2.3841858e-07,0.023118824,0.6813019,0.00013923645,0.00073719025,0.013079703,0.88495845,5.9962273e-05,0.9906139,2.8640032e-05
0.3691975,2.3841858e-07,1.8060207e-05,0.00016489625,4.014373e-05,0.004387796,0.0039863884,0.000539124,0.8539362,0.0023669004
0.99050355,0.0,0.00013586879,1.6510487e-05,2.0563602e-06,0.008541822,0.0011608899,0.002274841,5.570054e-05,0.0024269223
0.0013165474,0.00024360418,0.002614081,0.9986006,0.0016488731,0.011462241,0.020900458,8.404255e-06,0.048254162,0.0003863871
4.2021275e-05,0.000436455,0.45022866,0.9982635,0.03816715,0.019873232,0.0061690807,1.9460917e-05,0.0025065243,0.00018769503
6.854534e-07,0.9994552,0.00020185113,6.368756e-05,1.3917685e-05,0.0040760934,0.001240313,0.00046285987,0.0010184646,0.00012785196
0.006086856,0.0,0.0017755032,2.4437904e-06,0.00014290214,0.00057157874,0.001110971,2.682209e-05,0.99413574,6.3180923e-06
1.0728836e-06,0.009314626,4.4733286e-05,0.0016291142,1.1444092e-05,0.01104033,0.9795027,2.348423e-05,0.08479369,0.059036165
0.002832383,0.8579593,0.009920746,0.00011536479,2.7120113e-06,0.03603655,0.0036606789,0.00023588538,0.0062682033,0.009220511
0.9944297,1.1920929e-07,0.000116467476,1.6570091e-05,6.0796738e-06,0.006553918,0.002946943,0.0002616644,0.005015075,0.0009364188
0.00011861324,3.1858683e-05,1.5199184e-05,0.00010880828,5.9604645e-08,6.4074993e-06,0.00011944771,2.9802322e-07,0.0010055602,0.9998778
0.019859433,2.4437904e-06,0.00021249056,2.6285648e-05,3.5762787e-07,0.0032365322,0.0017654002,0.00020453334,0.0131602585,0.97813255
0.0033283234,1.6093254e-06,9.012222e-05,3.877282e-05,6.109476e-06,0.0065489113,0.007178962,0.00014591217,0.99397624,0.000687927
0.00067973137,0.00017946959,0.002385646,5.477667e-05,0.00083747506,0.0018284619,0.009237766,7.006526e-05,0.0012766123,0.9815128
0.998932,0.0,8.970499e-06,5.3942204e-06,1.66893e-06,0.012822509,0.00043168664,0.00022420287,0.0005464554,4.130602e-05
0.9980371,2.682209e-07,0.00054094195,3.8415194e-05,1.9967556e-06,0.003196001,0.0014640987,0.00059202313,4.631281e-05,0.0013985932
0.019672781,1.5318394e-05,4.273653e-05,1.9162893e-05,4.887581e-06,0.0030051172,0.015838057,0.00039041042,0.9833888,0.023311615
0.00032275915,0.99907607,0.002013296,0.0034806132,3.7044287e-05,0.028590828,0.0020250082,0.00015562773,0.11707419,0.014482141
0.0023453832,0.00035992265,0.0015616715,7.7575445e-05,6.6161156e-06,0.0053211153,0.016603678,0.00029203296,0.97660047,0.0023905039
0.0,0.23496735,0.0009404719,0.030368239,0.004938185,0.99861294,0.21926734,5.066395e-07,0.7364153,2.1457672e-06
0.00012984872,0.00034090877,0.005347103,0.00023624301,1.2755394e-05,0.80656075,0.15147445,6.7174435e-05,0.03796494,0.06800708
0.021484047,1.1175871e-05,0.00022631884,0.00014176965,0.00031375885,0.0038574636,0.007722318,7.176399e-05,0.99150735,0.0037970245
0.8760332,1.4394522e-05,0.023214906,3.412366e-05,3.0398369e-06,0.0024749339,0.0009248853,0.00091156363,0.0015286505,0.08763012
0.28110892,2.232194e-05,0.9575681,0.0007557869,6.824732e-06,0.0060308576,0.0044119954,0.002869755,0.0012852252,0.00415197
0.777179,2.8908253e-06,0.0007292628,0.000826776,0.00015345216,0.0223113,0.038355023,9.521842e-05,0.04613599,0.002685815
0.3567454,1.013279e-06,5.7816505e-05,0.0029322505,4.2527914e-05,0.011100978,0.0026278198,0.0005930066,0.5835983,0.00061035156
8.109212e-05,0.9465505,0.046816945,0.044116348,0.00035133958,0.0070959628,0.008457124,4.0084124e-05,0.55318666,0.02140686
6.03199e-05,0.0,2.4437904e-06,0.9999961,3.9994717e-05,0.00081291795,0.0009056628,3.2782555e-07,2.9802322e-07,2.9802322e-08
2.1219254e-05,0.03460738,0.062576294,0.267644,0.041505754,0.004134357,0.008823454,1.5497208e-06,0.982262,0.0025207698
0.9970833,0.0,0.0005630851,3.6597252e-05,1.0162592e-05,0.0071440935,0.0014465749,0.00028386712,0.0001578331,0.00048479438
0.014227033,1.3530254e-05,0.00020423532,7.9602e-05,3.0696392e-06,0.99003774,0.017589092,0.00031623244,0.008710116,0.036003858
0.9887701,1.66893e-06,0.00039032102,0.00048425794,1.218915e-05,0.00723359,0.0100616515,0.002223879,0.00075280666,0.0143919885
2.0861626e-06,4.5090914e-05,0.0002619028,0.00042769313,0.00014415383,0.99952817,0.023967266,9.089708e-05,0.98379815,4.3064356e-05
0.00052791834,4.7683716e-07,3.3944845e-05,0.9996419,0.00042554736,0.007908374,0.0025458932,1.4066696e-05,0.0017142296,3.221631e-05
1.847744e-06,0.97199357,0.016483575,0.9950006,0.00044173002,0.0136576,0.017511427,1.6391277e-06,0.7896271,0.0005092919
0.00095418096,6.7830086e-05,0.0024256408,0.0003643334,1.5884638e-05,0.9999837,0.01887846,0.00014552474,0.0060167313,0.0005981922
0.045592934,5.9604645e-08,0.00015673041,0.00017499924,0.00030630827,0.0015492141,0.0026465952,0.0017168522,0.980958,6.070733e-05
0.04501459,0.0,6.7055225e-06,5.8323145e-05,5.0336123e-05,0.00044196844,0.00115183,0.00015491247,0.98873055,0.00019359589
0.5128451,8.940697e-08,3.671646e-05,0.00015333295,0.0037215054,0.003109485,0.005661607,0.0006222129,0.3590871,0.0009933114
0.031219244,0.00048816204,0.29889458,0.0015224218,0.000103503466,0.0023799539,0.0046240687,0.00043174624,0.9883467,0.0061051548
0.21891126,1.9073486e-06,0.00026109815,3.08156e-05,1.013279e-06,0.077833354,0.02734974,0.0010323822,0.0006760061,0.013403147
0.97303605,5.9604645e-08,0.00015819073,3.0487776e-05,9.447336e-06,0.013887793,0.004114747,0.009840667,0.00040394068,0.0021515787
0.009925067,0.0004605949,0.0015297234,9.351969e-05,1.5467405e-05,0.016138554,0.23938629,0.2508459,0.00453642,0.11317879
0.9932796,4.7683716e-07,0.00015255809,0.00018808246,3.3080578e-06,0.0030909777,0.0020016134,0.00033158064,0.00073078275,0.009794116
0.0029914975,0.00044578314,0.083556294,0.000497967,0.00026610494,0.0048621893,0.00542596,0.00033974648,0.99366057,0.00082215667
1.2695789e-05,0.99627364,0.004321605,0.030869335,0.0002654493,0.023528665,0.02226922,2.682209e-06,0.8956367,0.003374964
0.0,5.6773424e-05,0.9927897,0.9995918,0.89675033,0.00753209,0.0025587678,0.0,0.00010916591,1.6391277e-06
0.0,0.9999176,0.00030764937,1.6570091e-05,0.00020083785,0.0076898336,0.00034591556,9.775162e-06,0.0651719,0.00029319525
0.989277,0.0,3.6805868e-05,7.399917e-05,7.2717667e-06,0.019152194,0.0025277138,0.0006894767,0.0155527,0.0015463829
0.005923748,0.013884127,0.0037505627,0.0004476905,6.824732e-06,0.0038959682,0.0065767765,4.1753054e-05,0.93542117,0.35530525
0.011759341,1.2516975e-06,0.00018465519,0.00010198355,0.0001924038,0.0035334527,0.0036372542,1.2278557e-05,0.98460174,8.037686e-05
