0,1,2,3,4,5,6,7,8,9
0.9647658,5.722046e-06,0.0002938807,0.00033658743,2.4706125e-05,0.009766936,0.017494887,0.0028185844,0.013905644,0.02297756
0.72805405,2.9802322e-08,9.423494e-05,9.766221e-05,1.2516975e-06,0.00041100383,0.0010629296,0.3197385,7.033348e-06,0.0133212805
1.6152859e-05,2.5004148e-05,0.005936712,0.0030809045,0.9822128,0.99994683,0.008804351,0.00033339858,0.0001514852,5.6385994e-05
2.9802322e-08,0.0058116913,4.8696995e-05,0.9999396,6.735325e-06,0.035553664,0.9987533,1.7881393e-07,2.7000904e-05,4.7683716e-07
0.0021016896,4.6610832e-05,0.00029352307,0.9998878,7.8082085e-06,0.019687563,0.01024279,4.1127205e-06,0.00635463,1.5318394e-05
0.8637986,0.0,3.194809e-05,2.1159649e-05,4.5597553e-06,0.00014519691,0.0009896457,0.35268128,1.3649464e-05,0.0032776892
0.0706594,8.100271e-05,9.4383955e-05,0.00017410517,7.5399876e-06,0.004140109,0.047813296,0.0005863607,0.90476245,0.08624554
1.2218952e-06,2.9534101e-05,0.0009823442,0.99999213,0.95607376,0.0013869405,0.0027516484,9.983778e-06,0.0003875494,4.6610832e-05
2.7120113e-05,0.00016748905,0.00029796362,0.858209,8.34465e-07,0.0026967227,0.016954094,7.387996e-05,0.9985372,6.3985586e-05
5.5134296e-05,0.00072452426,0.000106692314,0.00019994378,4.2915344e-06,0.03990397,0.9995021,5.8233738e-05,0.0038506687,0.0010049343
0.0045439303,0.00011181831,0.6776226,0.0005365014,0.00023138523,0.0034653842,0.008230954,0.0003129542,0.9147817,0.0010393262
0.0051336586,0.0,8.636713e-05,1.1980534e-05,3.874302e-07,0.00029465556,0.003934145,0.00040644407,0.9928521,7.775426e-05
8.878112e-05,0.5043032,0.0078339875,0.9858571,0.00030064583,0.02132088,0.08712369,2.3841858e-06,0.7242198,0.004224807
0.00025761127,0.9580539,0.044118732,0.0059314966,0.0002478063,0.030081093,0.09387156,0.00033393502,0.06437063,0.056228817
0.18661931,0.0,4.9352646e-05,8.374453e-06,2.3841858e-07,0.0003220439,0.004158348,0.000818938,0.8913022,0.00036206841
0.007244587,0.1319277,0.032194704,0.0056259036,0.00039723516,0.01835376,0.32015482,0.0010906756,0.37123364,0.055956513
0.00050881505,0.00013434887,0.0008376241,0.9997497,0.0026827455,0.010353714,0.008649826,2.5093555e-05,0.3234656,2.1725893e-05
0.9943502,3.2782555e-07,0.00019556284,2.6375055e-05,2.7120113e-06,0.002898246,0.0032241642,0.00012862682,0.0013351738,0.01157096
0.0,0.0070589483,0.7427571,0.00031653047,0.15848422,0.033968925,0.86552596,0.0003039539,0.75112545,1.513958e-05
1.9878149e-05,0.0003732741,6.9230795e-05,0.0033187568,1.0311604e-05,0.0048563182,0.9224284,0.0019760132,0.9516151,0.0011576116
0.9933131,8.940697e-08,0.00035825372,5.635619e-05,6.5267086e-06,0.0014719963,0.0027489066,0.0067922175,0.00026491284,0.005111754
0.08603108,0.0002631247,0.81164956,0.04461974,1.2934208e-05,0.0034248233,0.004294604,0.028850496,4.3153763e-05,0.007006556
0.99786466,0.0,0.00010499358,6.2286854e-06,4.7683716e-07,0.00076043606,0.0015245378,0.0002604127,0.00019669533,0.0012631714
0.028611362,0.0016773343,0.009927422,0.023375034,5.5134296e-06,0.014814854,0.026331276,0.002749145,0.92906,0.017486662
0.051401794,8.2165e-05,0.00081959367,0.00025480986,3.683567e-05,0.006926298,0.02280134,0.00048965216,0.9715632,0.0017943382
5.662441e-07,0.009822398,0.08160403,6.785989e-05,2.1129847e-05,0.9986824,0.0223248,0.00025931,0.014650583,0.00396055
5.969405e-05,0.003623426,8.904934e-05,1.1980534e-05,0.0,0.022954494,0.9910174,0.0012345612,4.6283007e-05,0.008919358
0.61010355,0.0,0.00019589067,8.791685e-06,3.5762787e-07,0.0007432401,0.0011779964,0.7316108,0.00020444393,0.001193583
0.064668804,7.8082085e-06,0.0007766783,0.0002782941,4.7445297e-05,0.0028614104,0.002426833,0.9831087,0.14171758,0.0037180781
5.969405e-05,0.96517205,0.014231205,0.6206158,0.00038817525,0.008393556,0.04885319,3.6358833e-06,0.95085037,0.0038485527
0.0006580651,0.009738952,0.00016927719,0.000698179,3.33786e-05,0.02293086,0.9765625,0.001444906,0.03558892,0.008683294
6.3180923e-06,0.0010930896,0.00028517842,0.00015819073,7.390976e-06,0.046146095,0.9990651,1.4692545e-05,0.08716279,8.0525875e-05
0.17426056,1.3321638e-05,0.0009739697,5.4121017e-05,1.6391277e-06,0.013516396,0.8684238,6.3329935e-05,0.0019879043,0.0003925264
7.2568655e-05,0.00015679002,0.0012096763,0.99992776,0.0014953911,0.0077262223,0.023204565,0.00017994642,0.0004118383,0.0002874434
0.4202434,3.33786e-06,0.00017759204,4.8458576e-05,5.4836273e-06,0.00814119,0.011251032,0.00091171265,0.7463915,0.0016779006
0.99432373,1.4007092e-06,0.000878036,1.0550022e-05,9.834766e-07,0.006115079,0.002615124,0.00020226836,0.00025323033,0.0071007013
0.7178637,4.7266483e-05,0.0038488805,0.00022399426,1.0639429e-05,0.0077539086,0.017871112,0.0008572638,0.38117957,0.032533646
0.9878719,2.9802322e-06,0.0005751848,0.0002822578,1.0371208e-05,0.0031895041,0.011534423,0.0013355613,0.0005913377,0.020231396
0.98539,5.9604645e-08,0.0001655221,1.603365e-05,1.3560057e-05,0.0023393333,0.006429851,0.0004492998,0.0005427301,0.0072740316
0.0023184419,3.9041042e-05,0.0004684329,0.0029907227,8.8989735e-05,0.0016091168,0.0058421493,0.0035811365,0.9957012,0.00027155876
2.1547079e-05,1.1503696e-05,0.9855257,0.0121952,0.0003183782,0.00085893273,0.004513681,0.026453018,0.8661581,0.00063315034
0.93517756,1.23381615e-05,0.00047582388,7.733703e-05,6.4074993e-06,0.008605838,0.012584031,0.0002233386,0.039477825,0.041727692
2.0563602e-06,0.0003220439,0.024503082,0.00016832352,0.0013011694,0.9999976,0.01553157,0.00010240078,0.2506981,3.0726194e-05
0.00018632412,0.96627104,0.002683401,0.018015236,0.0011532605,0.010692924,0.019035786,8.651614e-05,0.974884,0.0012681186
0.0024940968,4.9471855e-06,5.733967e-05,0.00011217594,3.8146973e-06,0.0007021129,0.011198938,0.0003886819,0.99713093,0.00049233437
0.0009920597,5.9604645e-08,9.834766e-06,1.4871359e-05,6.2584877e-07,0.0001553595,0.0011112988,0.9991088,0.008341461,0.025505602
0.15678328,1.1563301e-05,0.0036672354,2.5063753e-05,8.136034e-06,0.003179133,0.010780692,0.00021156669,0.8910935,0.0010598302
0.030598491,0.0004042685,0.0021790266,0.05112979,0.00033333898,0.0077439845,0.020181179,0.003795296,0.8801173,0.016399086
7.420778e-05,0.9894793,0.0035035014,0.0039862692,0.0006247759,0.015428752,0.00705114,1.31726265e-05,0.17010641,0.014551312
0.99874294,0.0,5.4240227e-05,9.834766e-07,2.9802322e-08,0.0009794235,0.00080263615,2.4855137e-05,0.0005553961,0.0009955168
0.00046619773,6.118417e-05,0.0024347305,0.00010380149,1.5825033e-05,0.91358286,0.060182452,0.0021481812,0.0035397708,0.058823556
9.36985e-05,0.9787732,0.007820904,0.0016797781,9.140372e-05,0.009918332,0.011584252,9.664893e-05,0.01232335,0.021144986
2.2947788e-06,5.64456e-05,0.00010988116,0.00018915534,1.5854836e-05,0.99999475,0.0040261745,5.850196e-05,0.7884681,0.00019294024
0.488959,1.2516975e-06,7.1823597e-06,7.659197e-05,6.854534e-07,0.005120367,0.006149173,0.011440694,0.514296,0.013656795
0.9429201,1.0937452e-05,0.0012836456,9.0390444e-05,8.5532665e-06,0.007375896,0.009100378,0.0012283623,0.015572339,0.033411175
0.00022429228,0.9678345,0.025560021,0.027838916,0.002114594,0.010538906,0.10798937,4.503131e-05,0.27450222,0.014554679
0.9513899,3.516674e-06,0.00017476082,5.0246716e-05,7.1525574e-07,0.004701197,0.005160719,0.001833111,0.03914559,0.034295976
1.9490719e-05,0.99347043,0.022335768,0.0064194202,0.0004517138,0.044905573,0.012506753,0.0024623573,0.00086280704,0.015152663
0.8687863,1.0281801e-05,0.001022011,0.00022536516,3.7282705e-05,0.006069362,0.011523396,0.020183563,0.027393311,0.04733327
0.0014218688,0.99067724,0.0059449077,0.004501313,0.00029319525,0.005333483,0.0042105317,2.771616e-05,0.050002873,0.04957512
0.9899382,2.3841858e-07,0.00023037195,3.2156706e-05,2.0861626e-07,0.001928091,0.002260387,0.0024072528,0.0008751452,0.0034163892
0.013767481,0.0003439486,0.0004772842,0.000121593475,9.506941e-06,0.98544323,0.028091222,0.0011546016,0.20926717,0.0059843957
9.059906e-06,1.4543533e-05,0.0014436841,0.008325249,0.92094254,0.9999434,0.0040380657,0.00024014711,0.00111866,0.00037047267
0.0001296103,0.00023561716,0.00016725063,0.00066918135,2.9802322e-08,0.0010854006,0.06655255,0.00027173758,0.1907298,0.80299723
0.16567811,0.00089368224,0.00058722496,0.0006119311,2.5331974e-05,0.0071333945,0.031414747,0.00013527274,0.46497482,0.23664758
0.97390974,5.9604645e-07,0.0019958317,3.5762787e-05,2.7120113e-05,0.0022199452,0.004546821,0.03536865,0.0006490648,0.0039776564
0.9415127,7.748604e-07,0.0007778406,6.753206e-05,1.8775463e-06,0.0036336184,0.0036138892,0.1110262,0.0016407967,0.025176644
0.0010586381,0.0016078651,0.06031564,0.0013656616,0.0011505783,0.0030108094,0.01169166,0.0016689003,0.9813945,0.02130422
0.00024470687,2.7179718e-05,0.0003234446,0.00019803643,1.3977289e-05,0.0029978752,0.009773552,0.7008166,0.84774435,0.024911642
0.005073726,0.0,8.85129e-05,3.7550926e-06,5.364418e-07,2.8163195e-05,8.7708235e-05,0.99974585,3.2186508e-06,8.7291e-05
0.16763103,3.504753e-05,0.0001617074,0.00015726686,2.193451e-05,0.0040873885,0.011575937,0.0021490753,0.88163435,0.022520691
0.9711751,5.9604645e-08,0.00019517541,2.0444393e-05,1.5854836e-05,0.003231138,0.0037629902,0.011822015,0.010883868,0.0029962063
0.0007559657,0.00020673871,0.0003848672,0.9998364,0.0018646121,0.0055007637,0.007597178,2.9474497e-05,0.0007686317,0.00039300323
4.181266e-05,2.1338463e-05,0.00010943413,0.99998647,2.6375055e-05,0.0031294227,0.00691697,1.7881393e-05,0.00020843744,8.34465e-07
0.00036981702,1.2367964e-05,4.196167e-05,0.9999675,0.00015988946,0.0074519217,0.006577611,7.688999e-06,0.00010442734,8.195639e-06
0.001149714,6.377697e-05,6.1929226e-05,0.00024425983,4.440546e-06,0.003846258,0.037961274,0.00068470836,0.9965453,0.0006889999
0.038479477,5.9604645e-08,3.4570694e-05,5.0663948e-05,5.662441e-07,0.0005507469,0.0005607903,0.9933027,0.000580281,0.001962334
0.92532694,6.556511e-07,0.004503876,2.604723e-05,2.9802322e-07,0.0025223792,0.0073587894,0.01139155,0.00035470724,0.052029163
0.5377152,0.0,1.8537045e-05,3.9041042e-06,2.3841858e-07,0.00047826767,0.001552403,0.011656553,0.266468,0.000106573105
0.9258802,5.662441e-07,0.00036090612,0.058947623,9.834766e-07,0.013284057,0.003391087,0.0010399222,0.0017995536,0.0002912283
0.9836631,1.66893e-06,0.0002965331,8.9108944e-05,1.2814999e-06,0.0027651489,0.004620403,0.0023652017,0.00091323256,0.014831036
0.0043711066,1.1920929e-07,0.0018115342,0.00073230267,0.99593085,0.0008215904,0.0021192133,0.010811716,7.197261e-05,0.00024828315
0.98523736,2.9802322e-08,0.0025278926,5.841255e-06,2.3841858e-07,0.002044797,0.0031485856,0.019022495,0.0024528801,0.0006053448
0.9932728,1.1920929e-07,0.00014078617,4.708767e-06,3.2782555e-07,0.0024176538,0.002593547,0.0009686649,0.0008312166,0.0027719736
0.0025841296,0.00053459406,0.007960647,0.0030846894,0.006465107,0.00377661,0.012017071,0.0061682463,0.9951937,0.00031346083
0.9816345,3.2782555e-06,0.001714319,0.00016498566,5.6028366e-06,0.0015862882,0.005977422,0.00772658,0.0003234446,0.021820247
0.0014262795,6.386638e-05,8.267164e-05,0.0005902946,3.093481e-05,0.040549755,0.046947867,0.0040570796,0.9815812,0.0019284785
6.237626e-05,0.00037750602,0.0016688108,0.00094503164,0.0014083982,0.0046382844,0.009236693,0.0005271733,0.0077076256,0.9145496
0.0067158043,5.5134296e-05,0.00025853515,0.99969995,0.00047144294,0.015484452,0.015672684,2.1278858e-05,0.01653248,2.425909e-05
0.00017955899,0.8959854,0.1475471,0.15807301,0.29492438,0.010183871,0.007022202,9.0390444e-05,0.22241756,0.014142841
0.04014513,0.00037407875,0.0011095107,0.0003348291,7.253885e-05,0.0059477985,0.02982366,0.0029055178,0.94101095,0.03979957
0.95163274,1.7881393e-07,0.00016462803,1.9550323e-05,4.172325e-07,0.0033991337,0.0025291443,0.0028279722,0.06460446,0.006296724
0.006341636,0.001875937,0.00092226267,0.0021111667,5.170703e-05,0.00048696995,0.01913488,1.0937452e-05,0.084673524,0.9245296
0.37808987,2.9802322e-08,5.3435564e-05,2.9593706e-05,1.5795231e-06,0.000621438,0.0014050901,0.90032876,0.002865553,0.013983935
0.0,0.00023600459,0.96558404,0.0025846958,1.1086464e-05,1.0,5.3942204e-06,5.155802e-06,0.12178126,2.9802322e-08
0.903052,2.9802322e-08,0.00010636449,5.8442354e-05,1.5795231e-06,0.0040415227,0.0024270415,0.00021353364,0.116683185,0.00019538403
0.00094360113,0.0062849224,0.747626,0.0016762316,0.0007336736,0.005838245,0.02952534,0.0010059178,0.9449688,0.008609921
0.7992146,1.937151e-06,0.001580298,0.0012450814,9.441376e-05,0.0014554262,0.004150778,0.03941247,0.00057449937,0.104597926
9.012222e-05,0.008823037,0.00015315413,0.99711275,0.000105798244,0.04854855,0.51784897,5.3197145e-05,0.27659434,0.00067186356
0.0002654791,4.3809414e-06,0.00018280745,2.7537346e-05,8.940697e-08,0.0028955638,0.011130005,0.0019140542,0.0011366308,0.97881126
0.9823934,1.7881393e-07,0.0027918816,1.1116266e-05,8.672476e-06,0.0025617182,0.002907157,0.0012637377,0.008540362,0.0016462207
0.93277514,3.0994415e-06,0.00025641918,0.00035440922,2.720952e-05,0.012235224,0.019202352,0.0006297529,0.027053744,0.035642415
0.00045385957,0.00017541647,0.0031208396,0.0016017258,0.010943025,0.001780659,0.01208663,0.001057148,0.9977589,0.00023207068
0.1834585,0.0011146069,0.0014834106,0.00057306886,8.0406666e-05,0.0031026006,0.02292025,0.00036081672,0.20518067,0.48595867
0.99060726,0.0,8.2194805e-05,1.9192696e-05,1.6987324e-06,0.0033522248,0.0019128025,0.0038173497,3.9845705e-05,0.0020282567
0.0,0.9798559,0.0005353093,0.999812,0.00013190508,0.0831753,0.1323294,2.9802322e-08,0.00074774027,2.7686357e-05
0.0001385212,9.834766e-07,3.695488e-05,0.0005132258,2.2023916e-05,0.999735,0.008965194,0.12575096,0.000112742186,0.00035908818
3.8146973e-06,0.020160526,0.13152143,0.99981576,0.018553466,0.0060764253,0.00538218,7.212162e-06,0.14421862,7.337332e-05
0.71041197,0.00010597706,0.0013073683,0.00015440583,3.9577484e-05,0.007903248,0.016750902,0.0023878813,0.12442717,0.13366681
0.00031909347,1.3440847e-05,0.00019016862,0.9999801,3.1888485e-05,0.0033503473,0.0054500997,3.3974648e-06,0.0002901852,2.1278858e-05
0.93082094,8.940697e-08,0.00043118,0.00016990304,1.2397766e-05,0.002598524,0.0027948618,0.22191575,0.0029869378,0.0031616688
0.003373742,0.0006272197,0.020677984,0.7987156,0.97094953,0.009225011,0.024623781,0.0001437068,0.008492768,0.01835543
2.6226044e-06,0.9941072,0.0005481541,0.37600935,2.82228e-05,0.016558647,0.035855055,2.0861626e-07,0.98708355,0.00010058284
0.9717595,8.136034e-06,0.00039333105,0.00013527274,4.1007996e-05,0.011440545,0.015911072,0.0002680719,0.007710248,0.029589355
5.6922436e-06,0.004805237,0.9906409,0.0013087988,0.0008518398,0.0077353716,0.052323848,0.00081425905,0.93499917,0.00046217442
0.9356743,4.5210123e-05,0.029024541,7.459521e-05,7.659197e-06,0.009213358,0.011593193,0.0028150082,0.0045867264,0.025637597
0.00051158667,0.0008851588,0.00074985623,0.0011041164,0.00014001131,0.97801834,0.04842642,0.0035112202,0.748904,0.0052494705
2.9802322e-08,0.01175487,0.014296502,0.007781148,0.0012646914,0.9999995,0.018521935,6.854534e-06,0.06068793,3.501773e-05
7.0780516e-05,0.0041183233,0.0055612624,0.9999683,0.0011065304,0.014855057,0.13476336,1.0937452e-05,0.0010716021,0.00010833144
2.503395e-05,1.4901161e-07,0.00010293722,0.00012385845,2.8908253e-05,0.0011298656,0.0021194816,0.9991746,0.003700316,0.0015785396
0.9567183,1.7881393e-06,0.00041139126,3.287196e-05,3.874302e-07,0.004326761,0.0021696389,8.264184e-05,0.0017441511,0.021164864
0.99357873,0.0,0.00012087822,3.1590462e-06,4.7683716e-07,0.002193451,0.001605928,0.0016672909,0.0021176338,0.0011588037
0.9904688,2.9802322e-07,0.0007239282,5.90086e-06,2.3841858e-07,0.0022437274,0.0037978292,0.0011668503,0.0018134713,0.0056319237
0.1411191,3.924966e-05,5.77271e-05,0.00028038025,6.020069e-06,0.006115645,0.007688552,0.0037648678,0.9362844,0.012233943
0.7685287,6.151199e-05,0.0010903776,0.00025108457,6.905198e-05,0.0056110024,0.017648011,0.00014418364,0.1204232,0.035548866
0.006341636,0.0018763244,0.0009224713,0.0021112263,5.1766634e-05,0.00048705935,0.019136906,1.0967255e-05,0.08466387,0.92452574
0.0024988353,0.015759736,0.0829722,0.0052466094,1.14142895e-05,0.004007429,0.016127616,0.00020098686,0.53987706,0.664387
4.416704e-05,0.87582684,0.009401411,0.009159982,0.00031635165,0.016548723,0.037275314,0.00069859624,0.010766566,0.15107676
0.1005508,0.00019058585,0.00089874864,0.00028201938,2.5629997e-05,0.0044056177,0.025668293,0.00026357174,0.8928305,0.027814835
0.9407641,4.529953e-06,0.0010171831,0.00015878677,3.3676624e-06,0.0068122745,0.010792404,0.00060239434,0.0490236,0.028528243
2.0861626e-07,0.99969655,0.0009638369,0.0011186004,0.0063189864,0.008119315,9.3996525e-05,1.5288591e-05,0.062853664,0.0002783835
0.08141571,1.335144e-05,0.0002309084,7.671118e-05,1.2814999e-05,0.0017455518,0.009723246,0.00075536966,0.96407163,0.0057986677
0.019475788,0.00027880073,0.00010961294,0.00055179,1.731515e-05,0.04580936,0.9492747,0.00084605813,0.012219787,0.008048266
0.8441621,2.592802e-06,0.00030720234,2.7865171e-05,2.0861626e-06,0.0025676787,0.0036118627,0.00077083707,0.4774292,0.0162431
2.4795532e-05,0.99823594,0.004044682,0.82100403,0.0035601854,0.00818038,0.0018818378,1.9073486e-06,0.03601849,0.006353557
0.00018826127,0.0016547441,0.0018669963,0.99379086,0.02033338,0.008559197,0.01935798,0.00018042326,0.00418818,0.052579373
0.57573134,3.9070845e-05,0.00042903423,0.36822906,0.0008479059,0.024746537,0.014642656,0.00022175908,0.019377232,0.040715307
0.57136154,0.00011998415,0.0009419918,0.00017809868,7.122755e-06,0.011100233,0.013992608,0.00090894103,0.4734948,0.046943545
0.09626329,6.7561865e-05,0.012526721,0.00017616153,1.8775463e-05,0.004493892,0.012712032,0.00043055415,0.84731615,0.0041966736
8.389354e-05,8.3208084e-05,0.00023549795,0.0003002882,2.7120113e-06,0.0013945103,0.010867536,0.0008215308,0.99884516,0.000805676
0.26315475,1.40964985e-05,0.00020885468,0.00021272898,3.427267e-06,0.0029205978,0.0073170066,0.002051264,0.75871336,0.02834192
0.89000046,8.940697e-08,7.3850155e-05,4.029274e-05,1.1920929e-07,0.0036171079,0.0031688213,0.020993888,0.027862579,0.00562796
0.98582613,2.0563602e-06,0.00044581294,5.015731e-05,4.798174e-06,0.0075318515,0.009659648,0.0005441606,0.011029601,0.009471744
0.99755,0.0,0.00013932586,2.8014183e-06,5.9604645e-08,0.0009512007,0.0014359057,0.00060135126,0.00021457672,0.00047525764
7.1942806e-05,4.1633844e-05,5.8948994e-05,0.99998236,3.0517578e-05,0.011801124,0.058855236,4.1127205e-06,4.762411e-05,4.261732e-06
0.22240481,7.688999e-06,0.00029039383,3.5464764e-05,4.7683716e-07,0.0013766587,0.0065432787,0.00021398067,0.8199539,0.007634759
0.86195016,1.6987324e-06,0.00034928322,0.00022810698,4.2915344e-06,0.0038349032,0.00531739,0.27682853,0.01498726,0.017237335
0.99457973,5.9604645e-08,0.00025641918,1.3887882e-05,2.9802322e-07,0.0007470846,0.0020275116,0.002688259,0.00011062622,0.0050467253
0.0325619,0.00016775727,0.0017753541,0.00027686357,6.1929226e-05,0.004322201,0.027472138,0.00030770898,0.9812081,0.004204452
0.9934257,1.4901161e-07,0.00046628714,1.4334917e-05,3.2782555e-07,0.003020823,0.0031983554,0.00079390407,0.004726559,0.0016649067
0.68178594,4.991889e-05,0.0009447038,0.00017404556,2.130866e-05,0.0071703196,0.011891276,0.0005148351,0.39033043,0.07081258
0.0049700737,0.7620108,0.0050299168,0.0014432073,0.00016400218,0.008546114,0.05594659,0.00016447902,0.003938973,0.16464952
0.0032129586,8.136034e-06,2.5629997e-05,0.0009928644,5.662441e-07,0.04973057,0.9953922,0.00012999773,0.00022429228,0.00035616755
0.0062640905,0.0041663647,0.0009881556,0.002032727,7.7813864e-05,0.51870805,0.33367807,0.004002422,0.25601315,0.02690792
0.004273206,0.00033468008,0.0012921095,0.018349677,9.179115e-06,0.0045024455,0.023903757,0.00012037158,0.98507285,0.0072953105
0.8201214,2.9683113e-05,0.00078102946,0.00024241209,1.1533499e-05,0.0012246966,0.007885665,0.0015067756,0.0003877282,0.47052887
0.00018039346,0.00013059378,0.0071802437,0.00044187903,0.14298698,0.003319025,0.007357508,0.52840954,0.7821268,0.0018850565
0.0035697222,0.9036287,0.010741055,0.12380314,0.00093868375,0.029467762,0.024628967,0.00018128753,0.30784896,0.059884995
0.0010540783,3.644824e-05,0.00029206276,0.9998828,0.0006148815,0.008531392,0.0050962865,2.0325184e-05,0.0015870333,2.3424625e-05
0.9969704,0.0,0.00017425418,7.0035458e-06,1.0430813e-06,0.00055256486,0.001219511,0.0012787879,0.00015377998,0.00057789683
0.031719774,6.818771e-05,0.00060379505,0.00010702014,2.7000904e-05,0.00070253015,0.0023887157,0.9570584,2.7269125e-05,0.038751453
0.010608882,0.00040987134,0.0040821135,0.008700371,0.00025081635,0.9875696,0.04738167,0.00023150444,0.04152912,0.0024515092
0.0006709695,1.3738871e-05,0.00028198957,0.00076946616,2.5331974e-06,0.00011152029,0.0010117888,3.0845404e-05,3.0696392e-06,0.9991557
2.8342009e-05,0.9736037,0.012122959,0.017290652,9.49204e-05,0.025580794,0.029627293,4.7951937e-05,0.9965834,0.00035369396
0.0,0.0001474917,0.00022298098,0.9999969,0.00047317147,0.005047798,0.004424095,7.3611736e-06,0.033073246,2.2351742e-06
0.10006988,7.4505806e-06,0.0004759133,0.00022113323,2.9087067e-05,0.0032312572,0.01121372,0.0011655986,0.9475483,0.003532946
5.9604645e-08,5.066395e-07,5.9604645e-08,0.00011780858,0.0,0.0004633367,0.9598514,0.000112742186,0.9548156,0.0003106892
0.86690867,1.9341707e-05,0.004303992,0.0002116859,0.00013273954,0.0043940544,0.016405374,0.0041734874,0.0050299168,0.05751255
0.18029305,2.0861626e-07,8.752942e-05,3.182888e-05,1.4305115e-06,0.0027698874,0.0057023764,0.009726167,0.90565354,0.0011649728
0.0013279319,0.00025349855,0.0016488433,0.0006699264,0.0008366406,0.0037570596,0.009111017,0.006133288,0.9966713,0.0020391643
0.0030059516,0.033160925,0.0028241575,0.005586654,0.0013270974,0.048137575,0.3310368,0.0020960271,0.064082116,0.28910348
0.9904293,8.6426735e-07,0.0012230873,5.438924e-05,3.6984682e-05,0.006581992,0.009196103,7.131696e-05,0.0018805265,0.0012972951
0.99295545,5.9604645e-08,4.1007996e-05,1.9907951e-05,4.172325e-07,0.0020051003,0.0046162903,0.00087946653,0.0011054873,0.005107105
0.00019446015,0.00021728873,0.004796982,0.0018742383,0.0007791221,0.0023562312,0.026366144,0.009329021,0.95872843,0.036776006
0.9378631,1.0818243e-05,0.001229465,0.00035855174,2.4735928e-05,0.013641983,0.019257754,0.018236697,0.003921658,0.027686447
0.00085917115,0.964332,0.04207909,0.008402437,0.0006265044,0.0076375306,0.009726644,0.0014838278,0.07965836,0.038622707
2.0861626e-07,1.4305115e-06,0.00010854006,0.9999957,0.8755919,0.0038136542,0.0038254857,3.4570694e-06,0.0027448237,1.8179417e-06
3.516674e-06,1.8537045e-05,1.50203705e-05,4.929304e-05,7.748604e-07,0.030153722,0.9999924,7.748604e-07,4.4465065e-05,7.2836876e-05
0.9887024,0.0,0.00024452806,3.874302e-06,1.7881393e-07,0.00036507845,0.0010807812,0.017790109,0.00013536215,0.0019311011
7.173419e-05,8.1419945e-05,0.9852866,0.005760491,5.438924e-05,0.0039362013,0.013960004,0.0023929179,0.9663547,0.00047171116
5.9604645e-08,7.838011e-05,0.0013434291,5.4329634e-05,4.926324e-05,0.99999917,2.0205975e-05,6.1392784e-06,0.023574859,0.00010091066
0.96621406,1.0550022e-05,0.00068178773,9.649992e-05,3.0994415e-06,0.007379532,0.00877139,0.003656447,0.00988555,0.028039575
0.00024345517,0.00025764108,0.004493892,0.00024741888,4.681945e-05,0.9996585,0.04867825,0.0042116344,0.005797416,0.0037089586
0.00040325522,1.1920929e-07,9.924173e-06,0.0002040267,0.0,4.0709972e-05,0.007887512,0.001804173,0.99686867,0.00058963895
0.0,0.010457367,0.0023593903,0.0022263825,0.000697732,0.16415927,0.979643,4.529953e-06,0.105875015,0.00090909004
0.00015306473,0.96466416,0.0063433647,0.86176956,0.0030613244,0.018953264,0.013853729,3.257394e-05,0.13455978,0.018043458
0.00019866228,0.00015377998,0.0027338266,0.00018408895,3.4570694e-06,0.99998486,0.055430025,6.580353e-05,0.069227666,4.324317e-05
0.16920406,0.0069568157,0.008357972,0.0063212514,9.289384e-05,0.0038541257,0.013026148,0.00011575222,0.0032391846,0.8208251
0.86038244,6.556511e-06,0.0002747476,2.7626753e-05,3.1888485e-06,0.004423082,0.009901375,0.0003222227,0.238509,0.013799787
0.2954918,1.7881393e-06,9.700656e-05,0.000100553036,2.3245811e-06,0.0044209063,0.0037834346,0.15708363,0.85546994,0.0022898316
0.0,0.00044989586,0.007018,5.492568e-05,0.00014787912,0.9995836,0.00039091706,1.8775463e-06,0.011330664,0.00071772933
0.00031784177,0.09865752,0.42735314,0.0077355206,0.00024068356,0.0041083395,0.018535167,0.00056415796,0.98647416,0.015853196
0.00696975,0.010666668,0.11347398,0.0070943534,0.443281,0.004722923,0.01783514,0.0037990212,0.3855511,0.101991504
0.00027385354,0.009408265,0.0068799853,0.003316462,0.00021618605,0.7814232,0.114899576,0.00040256977,0.9808199,0.0010870099
0.89707756,3.6358833e-06,0.00036907196,0.00014808774,5.209446e-05,0.0064514577,0.0073578656,0.030525506,0.024082094,0.03268355
0.871673,7.1823597e-06,0.00061285496,5.8233738e-05,1.3411045e-06,0.0043519437,0.01048556,0.00024288893,0.06468099,0.08727166
0.00069344044,0.0012219846,0.00032007694,0.0024068654,8.136034e-06,0.94622886,0.31417164,0.025692493,0.013014525,0.026602387
5.9902668e-05,9.4771385e-05,0.9866805,0.0037651956,0.00069722533,0.0022734404,0.0080682635,0.00082859397,0.9739952,6.4998865e-05
7.1525574e-07,0.051482826,0.57260036,0.008084893,6.580353e-05,0.8543735,0.5319197,0.00031590462,0.7735926,0.00049868226
0.0004091859,0.034795195,0.0013442338,0.6376825,0.0011153221,0.007596582,0.6540686,1.4603138e-05,0.21497226,0.06442511
0.023513168,0.0012537837,0.03398794,0.9215112,0.85608447,0.013804704,0.023445666,0.00015774369,0.007799566,0.01156196
0.015977412,5.349517e-05,0.97726774,0.0006581843,0.0017646849,0.0061656535,0.03138134,0.0010865033,0.0033142865,0.0021034777
0.26215535,3.0398369e-06,0.00011599064,4.0769577e-05,2.9206276e-06,0.0029792786,0.007934898,0.0002706051,0.8963274,0.0025101006
0.00012758374,0.22320583,0.07942915,0.9987806,0.040857106,0.045439303,0.077795476,6.249547e-05,0.010575891,0.004637778
0.98529863,8.6426735e-07,0.00044339895,9.357929e-06,1.3709068e-06,0.0034273565,0.0042640567,0.0008355975,0.0030459762,0.008037865
0.042042255,2.7120113e-06,1.513958e-05,6.6161156e-06,1.1920929e-07,0.37970626,0.7610853,0.00020673871,0.0011918247,0.0003629923
0.00094488263,0.0007455647,0.005186528,0.0006726384,0.04510331,0.0040492415,0.016966403,0.003929913,0.9957962,0.00045731664
0.00023511052,6.380677e-05,3.5852194e-05,0.999977,8.419156e-05,0.022981077,0.0040954053,4.7683716e-06,0.00044304132,1.835823e-05
0.9671308,0.0,0.0001424253,1.8179417e-05,5.6624413e-06,0.004062116,0.0015384555,0.05257055,0.00026142597,0.0016538799
0.12798393,5.00679e-06,0.00058093667,0.4034428,3.5762787e-06,0.007594198,0.0010801256,6.1690807e-06,0.0011191368,0.00027558208
0.0037767887,0.0004913807,0.033788204,0.001575768,0.19718131,0.0048437417,0.0074798763,0.0377163,0.97970814,0.001046598
0.0003771186,0.000821501,0.0010632277,0.00048732758,2.0056963e-05,0.99988115,0.021562427,0.0013976991,0.10816404,0.0027177632
0.99119425,2.2053719e-06,0.0007375181,0.00020816922,4.7683716e-07,0.006183982,0.0063865483,0.00037950277,0.0003106594,0.020549953
0.000125736,0.0001360476,0.015070438,0.99993515,4.5865774e-05,0.0014136136,0.0025501251,7.5399876e-06,1.937151e-06,3.9190054e-05
0.9000185,8.46982e-05,0.0004965365,0.00011378527,1.4901161e-06,0.006110877,0.019116879,0.0060190856,0.0040812194,0.20290694
0.0003015101,5.364418e-07,0.00014203787,7.465482e-05,1.5467405e-05,0.00029793382,0.0025550425,0.9996449,0.0010653138,0.0064338446
0.0012836158,8.022785e-05,7.271767e-05,0.0007096529,3.8146973e-06,0.029503584,0.9613963,0.00046142936,0.2261534,0.0016438961
0.001969993,2.6613474e-05,0.00033512712,0.00077435374,9.685755e-06,0.00059244037,0.006204039,0.0004338324,0.9978235,0.00021398067
0.98641604,1.3411045e-06,0.0018347502,6.315112e-05,2.0802021e-05,0.004357815,0.010135502,0.0012542605,0.0020985901,0.0050995946
0.11531404,0.00066792965,0.0020305812,0.00037255883,8.508563e-05,0.0029914975,0.017599732,0.00063046813,0.5636935,0.23526892
0.9260719,1.5199184e-06,0.00367859,8.195639e-06,7.748604e-07,0.015373409,0.01232174,0.00025942922,0.0020371974,0.0019390285
0.0100182295,0.00017610192,0.00033316016,0.9994455,0.00018075109,0.029942036,0.016456395,9.000301e-06,0.015988141,0.00015094876
0.6776324,8.419156e-05,0.020450443,0.00037184358,9.930134e-05,0.004539728,0.013245523,0.00039088726,0.105582684,0.08841246
8.019805e-05,0.9007187,0.009822041,0.0020478964,0.001990378,0.10683867,0.012434363,0.0014071763,0.06211564,0.05899161
0.98706913,2.682209e-07,0.00039324164,4.2527914e-05,1.758337e-06,0.0056001246,0.004142642,0.0018142164,0.008367777,0.0037306547
0.4063397,2.2053719e-06,0.00031492114,0.0008581877,2.6792288e-05,0.0032092035,0.019636303,0.15465778,0.00083673,0.011274546
5.826354e-05,9.328127e-06,6.2555075e-05,0.9999529,3.0994415e-06,0.01608485,0.01894036,3.1650066e-05,0.0001360774,1.6629696e-05
0.98404825,2.0861626e-07,0.00010612607,7.659197e-06,1.3113022e-06,0.002301246,0.0020023286,0.0004363656,0.028492898,0.0064828694
2.0563602e-06,0.0010242462,0.00035613775,0.0002667606,3.761053e-05,0.9995204,0.048739284,0.00019446015,0.005691409,0.010398984
1.22487545e-05,0.970528,0.0059230328,0.008091271,0.0006542504,0.006901562,0.12657213,6.1392784e-06,0.9799093,6.195903e-05
0.9907572,4.172325e-07,0.00041732192,1.731515e-05,1.937151e-06,0.0040376186,0.0033051372,0.00023499131,0.006707132,0.006579429
0.9919591,2.9802322e-08,0.00075006485,2.6792288e-05,1.5497208e-06,0.004046887,0.0033886433,0.00028508902,0.0036972463,0.0005681813
0.06603578,2.4735928e-05,0.00010848045,0.0009421706,9.089708e-06,0.012195021,0.9057536,0.00012329221,0.00046783686,0.019521445
0.0059331656,9.23872e-07,0.0002180934,0.000166893,6.4074993e-06,0.00047180057,0.0014101565,0.997919,0.00016659498,0.003012687
0.002396047,0.0012131631,0.0014086664,0.00062033534,0.00020226836,0.9922803,0.19611835,0.00091555715,0.017044604,0.015786111
5.0365925e-06,0.84615815,0.0054062307,0.00071430206,1.9669533e-06,0.5896097,0.024834067,2.1755695e-05,0.11043316,0.021513373
0.9874965,2.95043e-06,0.0010027289,5.6803226e-05,5.4240227e-06,0.0075356066,0.006059587,0.0006174445,0.0032894015,0.012420088
0.0010731816,0.0002655089,0.00059846044,0.18402925,6.5773726e-05,0.002595663,0.0173679,0.0006298721,0.99575436,0.0006251037
0.99723,0.0,3.6656857e-05,1.937151e-06,2.9802322e-08,0.00055634975,0.00071269274,0.00045320392,0.00076279044,0.00045195222
8.5532665e-06,4.887581e-06,0.00035217404,0.9999973,0.046659768,0.009861112,0.0020894408,1.1026859e-06,0.000120937824,3.5762787e-07
0.10677189,4.8607588e-05,2.4229288e-05,0.00077065825,1.1026859e-06,0.90999985,0.16416508,0.00033190846,0.004402429,0.021790594
0.83347285,1.1920929e-07,0.0002747774,7.107854e-05,1.49309635e-05,0.0005323589,0.0033141673,0.25024453,4.169345e-05,0.0074349046
9.715557e-06,0.014063776,0.001060158,0.00011622906,0.00032514334,0.0018336177,0.7094983,0.00020200014,0.9576598,0.0060775876
0.90879047,1.2993813e-05,0.00041761994,0.00024357438,1.630187e-05,0.004880786,0.010133177,0.0005441308,0.019391358,0.14114362
0.9836827,4.4703484e-07,0.00067964196,3.4928322e-05,2.3841858e-05,0.00505358,0.009610236,0.00019472837,0.0017783642,0.0047596395
0.99065393,2.3841858e-07,0.0012672842,2.3514032e-05,2.771616e-06,0.004984945,0.004385829,0.007346779,0.0040314794,0.00096693635
0.035053164,3.567338e-05,0.00011995435,0.00017896295,9.119511e-06,0.0036777556,0.008664757,0.0010205805,0.98004305,0.0038110018
0.093482226,6.553531e-05,0.0004695654,0.00044864416,5.2154064e-06,0.0048113465,0.010186821,0.00081825256,0.9584633,0.015047729
0.011780858,0.00056415796,0.004217088,0.0009404421,6.943941e-06,0.0037986338,0.021855533,0.00089353323,0.07719651,0.90532124
0.607073,8.940697e-07,0.00038546324,2.7000904e-05,8.702278e-06,0.0027400553,0.0067221522,0.00042915344,0.61030614,0.0035073757
2.9802322e-07,2.4437904e-06,1.3560057e-05,0.9999999,3.543496e-05,0.0032545626,0.002651602,2.3841858e-07,0.00014957786,1.2516975e-06
0.000828743,2.3841858e-07,2.2381544e-05,0.00020611286,0.0,0.00022050738,0.05347511,0.008613467,0.92638314,0.0043624043
0.000456661,0.0028617978,0.0046004057,0.9999161,0.00034952164,0.025791407,0.032291293,4.4703484e-06,0.14086658,1.9133091e-05
3.129244e-05,4.3809414e-06,4.735589e-05,0.99999475,4.953146e-05,0.0014660358,0.0031045973,3.516674e-06,5.1528215e-05,2.771616e-06
0.9541507,8.34465e-07,0.0003504157,9.277463e-05,2.3692846e-05,0.0034662783,0.0052441955,0.044029564,0.013170481,0.010627806
0.0032877028,0.00016611814,0.0040287375,0.00022029877,0.038148522,0.009167105,0.004796922,0.03776449,0.93155974,0.0024254918
2.115965e-06,0.00782761,0.020137519,0.5653546,0.98695445,0.05273041,0.8924959,0.00045594573,0.0026028454,0.00029450655
0.992548,2.9802322e-08,0.00039497018,6.467104e-06,1.8775463e-06,0.0026749372,0.005210668,0.0015938878,0.0010851622,0.0007400811
0.0022788644,0.00040659308,0.00038820505,0.00073334575,3.6150217e-05,0.0019782186,0.02116561,0.0007277131,0.99423945,0.0025945008
0.006582141,0.00055748224,0.0022484362,0.0066114366,0.00029405951,0.006771207,0.024532825,0.00087964535,0.9941218,0.0011623502
0.0024670064,0.00012886524,0.00021135807,0.00092691183,8.404255e-06,0.0029539466,0.016266316,0.0006082952,0.9962878,0.002734661
0.0005411804,0.97974765,0.0131585,0.016064912,0.00040084124,0.019262701,0.020143688,0.00012508035,0.5772679,0.055989593
0.00092861056,0.0007221699,0.0009673536,0.9994592,0.02096814,0.04046932,0.034138143,3.734231e-05,0.0006442368,0.0026643872
7.480383e-06,0.0010415316,0.92292035,0.0003617704,0.000543803,0.99976736,0.01599276,0.0001412034,0.003951609,0.00014480948
0.13288721,0.00046348572,0.0020450354,0.00039622188,6.848574e-05,0.9022465,0.027068406,0.02169767,0.00095942616,0.033257723
0.0002899766,0.0002606213,0.014812589,0.0002912283,1.6003847e-05,0.999979,0.014645934,0.00046902895,0.002374649,0.0015098453
0.9438089,1.3411045e-05,0.0018949807,0.00018781424,1.8328428e-05,0.019057572,0.013560414,0.078071,0.0047021806,0.0174537
0.00015628338,3.874302e-07,1.40070915e-05,0.00033473969,3.5762787e-07,0.0009807646,0.0077645183,0.00097617507,0.9991675,2.2172928e-05
0.025946826,3.874302e-06,7.331371e-05,5.0246716e-05,5.364418e-07,0.0021021664,0.0116328895,0.0062208474,0.98128116,0.002388537
0.0048013926,1.14142895e-05,0.00043189526,0.00041738153,3.0130148e-05,0.00095537305,0.0056636333,0.004444778,0.99594176,0.00134027
0.40072715,2.5212765e-05,9.390712e-05,0.00019022822,1.3411045e-06,0.0039402544,0.00864625,0.010570675,0.5864172,0.098346174
0.0039151013,3.3527613e-05,0.00019690394,0.00011628866,2.95043e-06,0.00084611773,0.011148751,0.00048956275,0.9955997,0.002240628
0.0039914846,0.7210219,0.0042114556,0.0021146834,4.87864e-05,0.012991101,0.020840317,0.00037109852,0.08199772,0.24856511
0.0012265742,0.011876941,0.059071988,0.9993458,0.01341489,0.029693067,0.025157392,2.8401613e-05,0.3133539,0.00041675568
0.9700886,2.3841858e-07,0.00015634298,1.5437603e-05,2.9802322e-07,0.008458555,0.0053902566,0.0007725656,0.051047295,0.0017529428
0.0036392808,2.7149916e-05,0.00019794703,0.00016739964,3.707409e-05,0.0030078292,0.004603952,0.008508235,0.99587274,0.0007416606
0.06371349,2.9802322e-08,0.000112235546,6.4611435e-05,3.2186508e-05,0.0024696887,0.0039945543,0.0018690825,0.9333193,5.9515238e-05
2.8550625e-05,0.24664333,0.037440836,0.0056605637,0.00019744039,0.08801651,0.52520883,6.4998865e-05,0.97369105,0.0017951727
0.03681004,0.0012078583,0.03285405,0.0005789697,1.49309635e-05,0.009562761,0.5268119,0.00036475062,0.008523464,0.036962926
0.7645516,6.3568354e-05,0.00066557527,0.00035965443,2.041459e-05,0.016803503,0.020511836,0.00053459406,0.030923933,0.2140154
0.9896683,5.066395e-07,0.00015765429,5.2452087e-05,1.1920929e-06,0.0075101554,0.005890578,0.0032551587,0.0010251701,0.012465
0.9325727,1.1920929e-07,0.00011378527,2.4944544e-05,1.4007092e-06,0.0024632812,0.0043304563,0.0098391175,0.021842182,0.028660834
0.98993766,0.0,0.00021964312,1.937151e-06,0.0,0.0011444986,0.0010453165,0.004055202,0.00079503655,0.002986759
1.6450882e-05,0.78512496,0.38352942,0.000300467,0.0038916469,0.0088715255,0.005098611,0.0036515594,0.014420271,0.013000488
0.029159069,0.0003578961,0.017314017,0.00076168776,7.8350306e-05,0.008070469,0.017783284,0.004460782,0.9696572,0.005651623
0.001911819,0.5724692,0.033691764,0.050168753,0.0008404851,0.043548614,0.014419615,0.0032401383,0.15802428,0.44602
0.95834184,2.3841858e-07,0.00014778972,1.1056662e-05,1.3649464e-05,0.008606046,0.0045259,0.0002181828,0.02639094,0.0040204227
0.94222283,6.645918e-06,0.0015752017,0.00015094876,7.8082085e-05,0.0077874362,0.013782978,0.0015676022,0.030517876,0.0150078535
2.6524067e-06,0.13498858,0.74052453,0.99823606,0.036127836,0.047081113,0.03481424,3.7640333e-05,0.014027894,0.0015033782
1.3023615e-05,0.9887668,0.04090336,0.004721731,0.0007790029,0.030226767,0.0092947185,0.00017532706,0.48251703,0.00797075
0.009893298,6.198883e-05,0.00026533008,0.00023904443,1.0102987e-05,0.001193136,0.009835184,0.00017157197,0.9923723,0.0035895705
0.9583345,4.646182e-05,0.00097468495,2.4735928e-05,1.0430813e-06,0.0075376034,0.015240788,0.0011453629,0.0018392205,0.028560579
0.0014165938,0.00052669644,0.0016001463,0.01082474,0.00043851137,0.005499691,0.036001027,0.00025260448,0.9939818,0.0015461147
0.001519084,0.00018799305,0.016426831,0.00091966987,0.15096661,0.004152477,0.015491128,0.021321237,0.9908266,0.00045850873
0.9851061,2.3841858e-07,0.00044980645,8.9138746e-05,2.0861626e-07,0.00534153,0.0054067373,0.0054211617,0.0020856261,0.0020439923
0.00040629506,0.0003657937,0.0014869571,0.00058943033,1.7642975e-05,0.96212935,0.014683932,0.00044447184,0.7272824,0.053664505
1.1920929e-07,0.9188815,0.07802042,0.018244863,0.0011828244,0.9995141,0.00062555075,6.67572e-06,0.31931323,5.722046e-05
0.060535222,2.3573637e-05,0.0001526475,0.9863266,2.1159649e-05,0.0029504597,0.0044364035,4.479289e-05,0.00024855137,0.0032349527
0.9889507,0.0,0.00030997396,3.5464764e-06,1.4901161e-07,0.0009576082,0.0020116866,0.05205226,0.0011104047,0.00035622716
0.009151161,4.5895576e-06,7.343292e-05,0.00011751056,9.23872e-07,0.00048398972,0.0058387816,0.9919232,0.0010067523,0.01683718
0.06645408,0.0014415979,0.8988776,0.003340125,0.00013357401,0.01944688,0.013756484,0.0050762,0.20441744,0.008778751
0.11404586,1.66893e-06,8.144975e-05,7.5906515e-05,1.8179417e-06,0.0009716153,0.0023148358,0.9053271,0.00014910102,0.09383911
0.98573005,5.9604645e-08,0.00014191866,1.5705824e-05,7.1525574e-07,0.0013343692,0.003610611,0.008606166,0.0007161498,0.0060148537
1.9967556e-06,0.1932342,0.066219926,0.99534357,0.0036446452,0.014038265,0.6911527,2.6524067e-05,0.6077759,0.00025072694
0.9686982,1.0669231e-05,0.00096583366,0.00033694506,3.8444996e-05,0.0069817305,0.024315983,0.0018126667,0.0024225414,0.035687953
0.16723514,0.00019422174,0.0013706386,0.0009844303,8.7320805e-06,0.014352351,0.017205924,0.0081906915,0.61270165,0.05284682
0.0022204518,0.0013866723,5.5402517e-05,0.00018876791,3.6090612e-05,0.0044356585,0.92277694,0.0005284548,0.09787619,0.03261882
5.066395e-07,4.440546e-06,0.00018745661,0.9999908,0.0012560189,0.008221775,0.0053904653,0.00012424588,6.5892935e-05,7.0929527e-06
0.98930717,3.5762787e-07,0.00030839443,2.2143126e-05,1.9073486e-06,0.0083061755,0.008813769,0.0001886487,0.0015175343,0.0026826262
0.99617696,2.9802322e-08,0.00014185905,3.6656857e-06,8.940697e-08,0.002036512,0.0036272109,0.00034442544,0.00023418665,0.00089520216
0.000579685,0.0007814467,0.0024693906,0.002303511,4.377961e-05,0.99835646,0.105728686,0.00026637316,0.007799953,0.03038457
1.1980534e-05,4.7683716e-06,1.424551e-05,0.00013247132,2.8014183e-06,0.0012650788,0.00573799,0.012571275,0.9990792,0.00016474724
4.4703484e-06,0.00060912967,0.00019529462,0.0011347234,2.0563602e-05,0.0043528974,0.91882527,8.633733e-05,0.99826086,2.8073788e-05
0.0008685291,5.8740377e-05,0.00019404292,0.0006788671,2.3037195e-05,0.0029821098,0.013079852,0.00349167,0.9971636,0.0006865561
0.000119656324,0.007270485,0.97052145,0.011306405,0.012994349,0.0051590204,0.04009673,0.0025462806,0.50235206,0.018748939
0.97105384,5.3942204e-06,0.000115931034,0.00017097592,2.7418137e-06,0.0045986176,0.008964121,0.00032040477,0.0021815002,0.09915179
0.006341636,0.0018763244,0.0009224713,0.0021112263,5.1766634e-05,0.00048705935,0.019136906,1.0967255e-05,0.08466387,0.92452574
0.014809132,1.5974045e-05,0.03961277,0.00030636787,0.9772663,0.001856327,0.012205094,0.0023184717,0.0015141964,0.0019656122
0.91261977,8.457899e-05,0.0067619383,0.00013539195,4.068017e-05,0.0055375993,0.008825809,0.00017890334,0.0015511513,0.05303693
0.09976938,0.00021582842,0.00031206012,0.0006158054,1.3023615e-05,0.01067847,0.03877458,0.0012373328,0.09055892,0.58889854
0.9972565,0.0,5.298853e-05,1.1026859e-06,8.940697e-08,0.0005467832,0.0006862879,0.00017380714,0.0062161684,0.0004657507
0.0015978217,0.0004259944,0.0006622672,0.0048253536,0.0014380217,0.0001770556,0.0059661865,0.00014865398,0.0005993843,0.9923574
0.0034642518,1.04904175e-05,9.1552734e-05,8.657575e-05,4.2915344e-06,0.0041163266,0.021436572,0.010196388,0.9489378,0.008881897
0.5832871,6.660819e-05,0.0004030168,0.02042839,3.054738e-05,0.03173694,0.030177832,0.00020298362,0.38148427,0.022562236
0.96203995,1.2099743e-05,0.0006868243,0.00022506714,4.0769577e-05,0.010084629,0.012704015,0.00027140975,0.014666766,0.020644218
1.7881393e-06,1.4603138e-05,3.4064054e-05,6.4343214e-05,1.3560057e-05,0.0033724904,0.99966013,0.00010934472,0.0011159182,0.00023552775
2.0861626e-07,1.04010105e-05,0.00074374676,2.3633242e-05,1.7553568e-05,0.99999976,0.00019234419,1.3917685e-05,0.049695432,0.0003026724
0.0013354719,0.00014096498,0.00038474798,0.9996356,0.0006158948,0.012924999,0.004324734,0.00019460917,0.0006954968,0.000410676
0.95528126,1.9669533e-06,0.002469778,4.2289495e-05,3.132224e-05,0.006556779,0.007047951,0.026079029,0.00020447373,0.010044485
0.00021326542,3.46303e-05,0.00010049343,0.9999924,0.00031587481,0.0049104393,0.007470429,3.8444996e-06,0.00060775876,9.655952e-06
4.5895576e-06,0.9177146,0.03739491,0.999202,0.0053085983,0.014013767,0.08975935,5.2452087e-06,0.41692916,0.0001488924
0.97130007,5.9604645e-08,0.00039356947,1.0967255e-05,4.172325e-07,0.0014933646,0.0040166974,0.024496317,0.00025072694,0.0023307204
9.23872e-07,0.00012886524,0.0024468005,0.0031072497,0.83919185,0.9999772,0.010246336,0.00021216273,0.00018578768,0.00023144484
3.7789345e-05,2.5451183e-05,0.0003940165,0.9999927,7.516146e-05,0.0024828613,0.0061401725,1.9580126e-05,1.4513731e-05,1.32620335e-05
3.579259e-05,2.4735928e-06,4.7415495e-05,0.00012487173,1.1920929e-07,0.000644207,0.0063417554,0.019422442,0.9994397,7.82609e-05
0.0032187402,5.3316355e-05,7.504225e-05,0.99360734,4.7683716e-07,0.009360582,0.009041578,4.246831e-05,0.0020133257,0.0012667775
0.0038452148,0.047562838,0.0024809241,0.020392418,0.00029811263,0.0028645098,0.03628683,8.755922e-05,0.029283285,0.80446637
5.9604645e-08,0.0,7.4505806e-07,1.0,1.7881393e-07,0.0001553595,0.0005044043,1.1920929e-07,1.013279e-06,0.0
0.0010563731,0.00046280026,0.0003286004,0.00046908855,0.00017827749,0.024394304,0.8340043,0.0075102746,0.7301153,0.0027846396
0.9873672,4.142523e-06,0.00091695786,4.9084425e-05,2.771616e-06,0.009008348,0.009287566,0.0009918809,0.0013682544,0.015336543
0.9954421,1.1920929e-07,0.00010162592,1.40070915e-05,8.940697e-08,0.0022869706,0.0035828948,0.00232476,0.0001487732,0.0061679184
0.044693142,1.1920929e-07,3.2424927e-05,1.1712313e-05,2.0861626e-07,0.00041872263,0.0017630458,0.95546085,0.0020257533,0.019441396
2.9206276e-06,1.40070915e-05,7.724762e-05,0.0010498762,1.1920929e-07,0.004688531,0.99979603,0.07148656,1.7821789e-05,2.1904707e-05
6.0230494e-05,0.00013709068,8.547306e-05,0.99982584,0.00012269616,0.02036053,0.019788742,3.9339066e-06,0.92888784,2.1547079e-05
0.0036625266,0.011244595,0.051769823,0.002890706,0.00036925077,0.9197308,0.01579097,0.00013116002,0.19948283,0.08351916
0.05168739,7.134676e-05,0.00028184056,0.0003041923,2.0056963e-05,0.0025773942,0.017063439,0.000541836,0.87663764,0.10104367
9.128451e-05,0.103578,0.045793593,0.0031367838,0.00022950768,0.004356295,0.53566104,0.00010147691,0.9089354,0.014713645
0.10058099,2.0861626e-07,0.0005764961,6.16312e-05,3.4570694e-06,0.0007650554,0.0008301437,0.9890389,0.0010238886,0.0014755428
0.010678083,0.0013129115,0.0019201636,0.001260817,0.00017017126,0.003663361,0.021708637,0.000366956,0.98340577,0.017029583
0.9740487,3.3974648e-06,0.0025347173,0.00026115775,1.0222197e-05,0.005198866,0.0074483454,0.011161894,0.0006778538,0.03639269
0.97577065,2.9802322e-07,0.00012007356,2.4348497e-05,3.2186508e-06,0.0046857893,0.0038639903,0.002855152,0.028049082,0.007835507
0.018392742,0.00013694167,0.97246295,0.0012820661,0.00027945638,0.0035511851,0.0038474798,0.0005488694,0.15863079,0.0058991313
0.9914194,8.940697e-08,0.00037384033,9.387732e-06,6.854534e-07,0.0018086433,0.0025208294,0.0070496798,0.0015927255,0.0020761192
0.0006790757,5.7280064e-05,0.00016373396,0.00050616264,2.2441149e-05,0.0009939969,0.015792102,0.003953755,0.99824333,0.0005233586
0.21816993,3.555417e-05,0.000120311975,0.00019964576,4.2915344e-06,0.024265915,0.02028644,0.01325351,0.8218222,0.018586814
0.94982964,1.6957521e-05,0.002743125,6.2674284e-05,7.7188015e-06,0.005999863,0.008467823,0.00030109286,0.031229794,0.015865088
0.27826488,4.8309565e-05,0.0004143417,0.00016567111,1.1771917e-05,0.004727423,0.017230183,0.0012876391,0.2508705,0.15041262
0.34893048,3.5494566e-05,0.0003439486,0.00025600195,4.568696e-05,0.0076984465,0.012441725,0.0007298291,0.7885909,0.01489839
2.6136637e-05,0.0004888773,0.9865784,0.004186958,6.207824e-05,0.003167957,0.0065482855,0.0007196963,0.017559648,0.057350457
0.00043937564,2.2768974e-05,0.0042119026,2.1845102e-05,0.00031739473,0.0009801388,0.0134501755,0.00087812543,0.9931754,0.0007170439
0.004362315,0.0008364916,0.033712953,0.0018905699,0.7978445,0.0033900142,0.030540526,0.005164087,0.05216673,0.07560384
0.8414884,1.1324883e-06,0.00024804473,1.3917685e-05,3.1292439e-06,0.0043836534,0.004215777,0.00020742416,0.5073494,0.0027198493
0.0036478639,2.592802e-06,5.993247e-05,0.00010871887,4.7385693e-06,0.0005314648,0.006554067,0.00017780066,0.99746686,0.00024303794
0.9422378,3.284216e-05,0.00020432472,0.00034949183,7.599592e-06,0.011682123,0.02436158,0.0059557557,0.013365805,0.042081356
0.016295254,9.223819e-05,0.0002412498,0.00014558434,0.00011667609,0.0053029954,0.01700157,0.0044575334,0.95344645,0.011751592
3.2186508e-06,0.0027535856,0.07076177,0.0018435121,0.0007569194,0.9998749,0.0052003562,0.00014606118,0.90748554,5.77271e-05
0.10020512,1.9997358e-05,0.0015144646,0.00032785535,1.0728836e-06,0.007869363,0.01910615,0.0068436265,0.831718,0.020910263
0.15537104,9.804964e-06,0.00012883544,0.00028169155,2.3275614e-05,0.005967587,0.0050533116,0.0047268867,0.9041382,0.0017443895
0.98375404,4.7683716e-07,0.00030857325,8.174777e-05,2.3454428e-05,0.009848237,0.007572353,0.00022354722,0.010338306,0.0034535527
0.0042696,0.00010037422,0.0007312894,0.00030624866,3.287196e-05,0.0026657283,0.009065926,0.0014925003,0.9965718,0.0025754273
0.0011748672,6.613135e-05,0.99812585,0.002507627,0.00020736456,0.002702564,0.0040638745,0.026358247,0.001660198,0.0032336712
0.9782579,2.8908253e-06,0.00025984645,0.00010189414,4.440546e-06,0.005367726,0.008790731,0.00040858984,0.010329604,0.029752463
0.9661112,5.8710575e-06,0.00061529875,0.00014609098,5.725026e-05,0.009075522,0.013154566,0.0010689795,0.0067596734,0.04285088
0.9415052,2.9802322e-08,5.7399273e-05,8.314848e-06,1.4901161e-07,0.00050213933,0.002115339,0.10555628,3.3974648e-05,0.010613263
5.662441e-07,0.051261753,0.8518771,0.014405876,0.00035771728,0.99249005,0.04560098,0.00034964085,0.96691513,1.4811754e-05
0.9493011,2.2947788e-06,0.0017612278,5.3167343e-05,1.6361475e-05,0.0070482194,0.007784754,0.012585133,0.056236535,0.0040732026
3.2186508e-06,0.9977176,0.00010070205,0.0017811954,3.683567e-05,0.01713863,0.003607124,9.894371e-06,0.94040394,0.0005635023
0.0,0.9998965,6.264448e-05,0.00014382601,3.811717e-05,0.66227317,0.00041142106,2.3186207e-05,0.034537673,0.00022259355
0.52521276,3.5762787e-06,9.801984e-05,5.0991774e-05,2.2053719e-06,0.0032030344,0.0058889985,0.0002568066,0.68632114,0.0013926327
4.2378902e-05,0.00076699257,0.0041936934,0.99988127,0.826239,0.00926736,0.007722974,3.0398369e-05,0.0010814965,0.00048580766
0.95426893,2.682209e-07,0.0021398365,1.3649464e-05,1.1622906e-06,0.004702598,0.006817043,0.00049456954,0.082654,0.00046515465
0.0005585551,6.914139e-06,7.972121e-05,6.0498714e-05,1.7881393e-07,0.00030568242,0.029826999,0.0003209114,0.9933381,0.0022002757
0.0003915727,0.011698127,0.0005746186,0.00016635656,3.5762787e-07,0.04313329,0.99624455,0.00023034215,0.0026170611,0.003541559
0.00021475554,2.4735928e-06,3.5464764e-05,0.99997807,7.5101852e-06,0.003026843,0.003390491,1.04010105e-05,9.006262e-05,4.5001507e-06
8.940697e-08,7.748604e-06,1.2516975e-06,2.5004148e-05,2.3841858e-07,4.3421984e-05,0.9987464,0.017046899,0.0004440248,0.003476292
0.9358601,4.172325e-07,0.00017869473,2.4348497e-05,6.854534e-07,0.004489571,0.0029254556,0.0019488037,0.15904051,0.002770722
0.87509984,1.7881393e-06,0.009812772,9.649992e-05,7.390976e-06,0.0037032664,0.0052054822,0.44891575,0.0003130734,0.0030166507
0.0,0.0064916313,0.029177845,0.00012513995,0.002199918,0.99999976,0.004277408,4.2676926e-05,0.0046088994,3.5762787e-07
0.0005735457,1.5795231e-06,5.814433e-05,0.000103622675,1.9967556e-05,0.000402838,0.0040311217,0.00023674965,0.999105,5.5283308e-05
0.00014534593,0.13503471,0.15540841,0.8415979,0.00023522973,0.008435935,0.0155034065,1.5735626e-05,0.98797643,0.00095137954
0.599887,9.208918e-06,8.326769e-05,0.0001784563,1.052022e-05,0.0047851205,0.019955665,0.00026610494,0.28448477,0.06389123
0.00031203032,0.56229746,0.0024668276,0.006839931,0.0003208816,0.015818298,0.20667124,5.340576e-05,0.9750563,0.011982262
0.9882854,5.9604645e-08,0.0009123981,0.00010830164,1.8954277e-05,0.0016933084,0.0028920174,0.0020764768,0.0009276569,0.0071541667
0.9783117,8.940697e-08,0.00035646558,2.7358532e-05,2.413988e-06,0.0009914935,0.0021444857,0.06890637,0.00021535158,0.002328366
8.377433e-05,1.66893e-06,4.1872263e-05,0.9999488,9.3102455e-05,0.0027273595,0.0020164847,7.635355e-05,0.0006364584,6.2584877e-07
0.9910215,3.5762787e-07,0.0007197559,7.0929527e-06,2.7120113e-06,0.00530535,0.006699741,0.0015923381,0.00013655424,0.0014924407
0.11113244,0.003939599,0.0026888251,0.00043657422,1.2516975e-05,0.012375742,0.022802562,0.00033661723,0.8827089,0.07400933
0.002545178,2.0861626e-07,3.105402e-05,0.000102996826,9.417534e-06,0.0010573566,0.0009384155,0.99741936,0.22887498,0.00081685185
0.0012865067,3.325939e-05,0.00026139617,0.00073456764,1.2516975e-05,0.0009766221,0.012448579,0.000402987,0.99774384,0.00025448203
0.00133726,8.5532665e-06,0.0003194511,0.9998535,1.1831522e-05,0.005446017,0.0048754215,1.4692545e-05,0.0041798055,5.096197e-06
1.1622906e-06,0.9610659,0.15039128,0.012423813,0.23981324,0.019234747,0.030025184,0.0001938641,0.013238937,0.0033321083
0.0002872944,0.0027259886,0.0027059913,0.0073497593,5.9247017e-05,0.00039327145,0.005588472,6.765127e-06,0.0017281175,0.9941034
0.00038856268,4.8965216e-05,0.0003556311,0.9997592,0.0050843954,0.004491806,0.006538123,0.00019550323,0.0006045699,0.00012078881
0.0047753453,5.787611e-05,0.0005464852,0.99964297,0.000112205744,0.005577892,0.0070588887,2.3841858e-05,0.010212779,8.0913305e-05
0.012979835,1.2367964e-05,8.323789e-05,0.0005071461,3.2484531e-06,0.0015639365,0.013791978,0.0013052225,0.9878956,0.0025711358
0.6046739,1.0967255e-05,0.00010636449,0.00010097027,5.364418e-06,0.0044989586,0.014501214,0.004004061,0.3003855,0.032554388
0.99018943,2.9802322e-08,0.00018331409,1.001358e-05,2.9802322e-07,0.0014573038,0.0018694699,0.013219833,0.0003094375,0.0033450127
0.00025969744,0.0001861155,0.0003105998,0.0034580827,0.00018435717,0.08867526,0.8668856,0.0033140779,0.0014472306,0.045128793
0.053013384,8.070469e-05,0.00016272068,0.0008857846,2.130866e-05,0.0043863356,0.01238355,0.0009827018,0.9419188,0.016004324
0.98857224,1.013279e-06,0.00010609627,9.7841024e-05,1.5318394e-05,0.003051281,0.006504327,0.00070527196,0.0009817481,0.026037723
0.98450273,3.2782555e-07,0.000980705,2.2411346e-05,3.08156e-05,0.0062454343,0.0045500994,0.0012983978,0.0015791655,0.0020912588
0.00012657046,4.23491e-05,0.0014220178,0.0002542138,7.325411e-05,0.0044265985,0.0069652796,0.9909419,0.0115997195,0.018118173
0.977041,6.2584877e-07,0.021193415,3.2395124e-05,3.7431717e-05,0.0047406554,0.003944546,0.0010765493,0.00861612,0.0014641583
0.0786576,2.9802322e-08,0.00024551153,7.9870224e-05,2.6524067e-06,0.0007288158,0.00022608042,0.9929746,0.005161524,0.00042662024
5.1289797e-05,0.00086289644,0.9779384,0.004920453,0.00024217367,0.00255239,0.008515716,0.0015401542,0.96232706,0.0029657483
0.00069096684,0.00010225177,0.9968687,0.0037573874,0.0050028265,0.004460901,0.008940339,0.031404227,0.59279776,0.00039052963
0.97042894,7.2717667e-06,0.07401556,8.9138746e-05,3.656745e-05,0.0023099482,0.004077852,0.0020156205,0.00028586388,0.0045149326
0.0,4.3809414e-06,0.013546735,1.3709068e-06,7.748604e-07,1.0,0.0,1.4901161e-07,5.2452087e-06,2.9802322e-08
0.54373145,2.5123358e-05,0.005241543,0.00023412704,6.854534e-07,0.0011374056,0.007132381,0.23783183,0.00012755394,0.39910448
0.9222286,2.9206276e-06,0.00049346685,0.00039887428,8.255243e-06,0.004511565,0.008001447,0.022221684,0.0009017885,0.045995504
0.005723089,0.002194047,0.8911191,0.0041775107,0.002101928,0.014271408,0.052842706,0.00045746565,0.17458048,0.07922861
3.9964914e-05,5.51939e-05,0.9252889,0.028535575,0.00016906857,0.0011751354,0.002674222,0.73735636,0.00029206276,0.002351433
5.9604645e-08,0.41643998,0.0013128221,0.9998999,0.013658613,0.0631589,0.8000443,1.8775463e-06,0.21434987,6.377697e-06
0.00011751056,0.008479685,0.0037267804,0.9996844,0.012394667,0.013807178,0.024867624,3.6358833e-06,0.22058079,0.00050991774
0.0006581545,0.0013533533,0.025669098,0.0009832382,0.0,0.0018466413,0.008903384,0.00028556585,0.0046402216,0.8719042
1.9907951e-05,0.0035704672,0.035286427,0.9997318,7.3611736e-06,0.007638216,0.0035592318,2.6226044e-06,0.00019869208,0.00023123622
0.99641657,5.9604645e-08,0.0017662048,9.030104e-06,9.834766e-07,0.0022093952,0.0026569068,0.0005239248,0.00083717704,0.00037139654
0.36060655,1.2755394e-05,0.0036306083,0.00012427568,0.042723864,0.009650409,0.0066396,0.001767993,0.2378538,0.004020363
2.115965e-06,0.88680017,0.0010134876,0.002273202,6.9856644e-05,0.03646174,0.06059265,2.4139881e-05,0.9902826,0.0005595982
0.007131994,0.00016742945,0.00012293458,0.00031468272,1.1354685e-05,0.003770262,0.012141764,0.0003965497,0.9899283,0.015640348
0.89650273,9.536743e-07,0.0022081435,0.0009176433,0.000101566315,0.0065534413,0.006006539,0.09487763,8.1688166e-05,0.0049409866
0.9712244,1.1920929e-06,0.00041297078,3.7252903e-05,3.46303e-05,0.004121542,0.008756459,0.00011315942,0.0049723983,0.014682919
0.00014153123,0.04370472,0.023690403,0.9983741,0.0035003424,0.022628635,0.032405645,4.4614077e-05,0.9831222,0.0001847744
0.55353993,8.7440014e-05,0.0021962225,0.00052398443,7.7188015e-06,0.01368019,0.020096153,0.006913811,0.489977,0.041638166
0.0006220937,0.00055098534,0.997573,0.116885155,0.000862509,0.009166807,0.004085988,0.0031716824,0.00789085,0.0009795427
0.00013971329,0.0005838573,0.9978517,0.010491908,0.00026801229,0.003627956,0.01074332,0.0021766424,0.33344823,0.0072207153
0.96177846,1.9073486e-06,0.0047049224,5.814433e-05,4.8965216e-05,0.0044839084,0.008612186,0.00033986568,0.02204594,0.003914237
0.004762262,1.40070915e-05,0.0021456778,0.00036796927,4.1484833e-05,0.0014540851,0.01309523,0.00050741434,0.99515224,0.00014466047
0.04788652,0.0042405427,0.35190773,0.0014831424,0.00031349063,0.019636095,0.15919656,0.0006401241,0.005446017,0.009171039
2.092123e-05,0.9966277,0.0086119175,0.022874027,0.004952818,0.037385136,0.0069408715,6.964803e-05,0.5596693,0.0020819902
0.9866978,5.00679e-06,0.0041612983,3.6537647e-05,1.0937452e-05,0.008467972,0.011090547,0.0011256337,0.003513366,0.0059908032
0.9910166,0.0,0.00023967028,6.824732e-06,2.0861626e-07,0.0015077293,0.0023512542,0.00032922626,0.0015212297,0.006994784
0.055419445,0.00025102496,0.61284155,0.0005673468,0.00040480494,0.006996006,0.012667656,0.0037841797,0.6143936,0.005582571
0.00012040138,0.00012403727,9.089708e-05,0.99989766,7.793307e-05,0.013565242,0.012000024,9.23872e-07,0.63447714,3.6656857e-06
0.8075092,2.9802322e-07,6.788969e-05,3.3676624e-05,1.8179417e-06,0.0030340254,0.0024145246,0.0007865131,0.5266191,0.0031067133
0.51957214,1.1920929e-07,6.7323446e-05,1.0877848e-05,1.1920929e-07,0.0007701814,0.0051549375,0.0023192763,0.63753414,0.0035629272
3.516674e-06,0.99628985,0.007814407,0.049722612,0.00046783686,0.058766067,0.0055329204,9.894371e-06,0.86767626,0.0030319095
3.4719706e-05,0.00021505356,0.00011202693,0.9999814,0.0009148717,0.0067370534,0.021455616,5.3346157e-06,0.01865694,5.0336123e-05
0.9928162,8.940697e-08,0.00047042966,1.0550022e-05,6.854534e-07,0.00063857436,0.0014753342,0.0034628808,9.548664e-05,0.003237754
0.9932544,5.9604645e-08,0.00010848045,6.3478947e-06,1.4901161e-07,0.0016357601,0.0023216903,0.00045019388,0.00086405873,0.0033668876
0.9794688,0.0,7.0005655e-05,8.404255e-06,5.9604645e-08,0.00041666627,0.0028273463,0.003279686,2.8282404e-05,0.005669564
0.009277374,9.030104e-05,0.006875694,0.0002169013,3.6597252e-05,0.0055722594,0.049865842,0.006341219,0.17718083,0.3153031
7.367134e-05,0.9734274,0.00543797,0.009085268,0.00034618378,0.012519181,0.030633032,1.4215708e-05,0.9898553,0.0015482605
2.9802322e-08,0.011373699,0.0042307377,0.001417309,0.00013273954,0.9999974,0.93417215,9.745359e-06,0.14871794,5.930662e-06
0.9928379,0.0,6.6548586e-05,9.536743e-07,3.2782555e-07,0.0012559593,0.001691997,9.202957e-05,0.010771036,0.0006324649
0.00014218688,0.011988074,0.34393668,0.0016000867,0.0010251105,0.041006237,0.6344438,0.007707745,0.0041074157,0.058643162
0.048270375,0.0009714067,0.005761355,0.00077596307,1.0311604e-05,0.0037757754,0.011926919,0.007813871,0.0091712475,0.804852
0.00014862418,7.3075294e-05,0.030902624,0.0005976558,0.6055694,0.0015313327,0.010190517,0.0024136305,0.99789584,3.0457973e-05
9.420514e-05,8.699298e-05,0.00097212195,0.00014090538,2.3156404e-05,0.9999985,0.0035283267,9.274483e-05,0.007164985,0.00019657612
0.9500278,1.2397766e-05,0.0015355349,0.00056636333,3.2305717e-05,0.016534418,0.008528948,0.00010025501,0.031288713,0.0069434643
0.90295994,3.501773e-05,0.0013689101,9.804964e-05,2.2739172e-05,0.002358377,0.011326075,0.00048065186,0.00012773275,0.16670778
1.3500452e-05,0.99800396,0.0050582886,0.0045188665,0.0013557673,0.057636708,0.0020697117,5.364418e-05,0.12324718,0.006063342
0.9944637,5.9604645e-08,0.00035429,1.6540289e-05,1.2814999e-06,0.004616827,0.00530231,0.0026032627,0.00073856115,0.001752913
0.0055783093,7.006526e-05,0.0019872487,0.0041003227,0.00015965104,0.006472379,0.008256316,0.002100885,0.9922122,0.00034418702
0.003903687,0.0009088814,0.0005670488,0.0012468696,0.00042441487,0.0082728565,0.2847909,0.00033390522,0.035497785,0.6385993
0.99242556,3.2782555e-07,0.0002683401,2.849102e-05,5.662441e-07,0.003712386,0.005549848,0.002661705,0.0018048882,0.004746139
0.0025197566,0.0003322661,0.008945286,0.0007327199,0.0008138716,0.9999062,0.008448452,0.00042948127,0.057204872,0.0014778376
0.18882161,9.140372e-05,0.8261832,0.0001373887,2.3514032e-05,0.00085532665,0.004932046,0.026337087,0.00016498566,0.009142309
0.00092098117,2.232194e-05,8.586049e-05,0.99995244,0.00019219518,0.017037332,0.0075582564,1.013279e-06,0.032331705,4.4703484e-06
0.054481894,5.0514936e-05,0.033476382,0.00038555264,2.3841858e-07,0.0010311007,0.012184799,0.008577287,0.0049878955,0.9240103
0.44261193,4.1127205e-06,0.00018069148,8.255243e-05,9.834766e-07,0.0104343,0.009542346,0.0034973621,0.7571107,0.0038421154
0.38586274,0.000111460686,0.0022479892,0.0003553033,0.00015705824,0.012075841,0.23149478,0.001405865,0.0010409355,0.048745334
0.00405398,1.0043383e-05,0.00035738945,0.00016576052,2.8312206e-06,0.0022513866,0.008458793,0.004389763,0.99465585,0.00060644746
0.0013763905,0.94858503,0.0026977956,0.0069597065,0.00019985437,0.010231078,0.00771755,3.2514334e-05,0.033164382,0.26324362
0.9956658,2.9802322e-08,0.00035896897,3.7252903e-05,1.4305115e-06,0.0050941706,0.003765732,0.00061252713,0.0021484792,0.0012379885
0.020181596,0.02407965,0.0012626946,0.0012542009,2.8461218e-05,0.01062268,0.08901879,0.0009135604,0.8670912,0.20339832
0.92015505,6.4074993e-06,0.0004786849,8.6158514e-05,1.2814999e-06,0.010851949,0.012595475,0.05828011,0.0024479926,0.060031354
0.30776423,6.16312e-05,0.90656936,7.1555376e-05,9.101629e-05,0.0021668375,0.004610002,0.0028772354,0.00070905685,0.002307266
0.61762905,9.864569e-06,0.0021714568,0.000667423,0.038336605,0.0029360354,0.014565587,0.0014769137,0.0010837615,0.045709103
0.97146535,7.1525574e-07,0.0001590848,0.00012388825,1.1533499e-05,0.0034062266,0.0074020326,0.017550707,0.0015681684,0.0091573
0.0096413195,0.00033143163,0.001689285,0.0017974973,0.00026410818,0.047502816,0.61382353,0.020368904,0.0022304058,0.11411387
0.8612136,1.5079975e-05,0.41495082,5.507469e-05,5.325675e-05,0.002825141,0.0037868917,0.0019514263,0.0010469258,0.005756438
0.04543349,0.0,5.364418e-06,5.930662e-06,1.4901161e-07,0.00014436245,0.00013270974,0.99651814,0.0002861917,0.00081920624
4.3809414e-06,4.6163797e-05,0.00023964047,0.00039473176,5.841255e-06,0.9991393,0.021348387,0.0008395314,0.99166566,4.053116e-06
3.5762787e-07,7.748604e-07,8.672476e-05,0.9999999,0.0064412355,0.00020807981,0.00047051907,2.9802322e-07,3.2782555e-07,1.2516975e-06
0.016953379,0.00017356873,0.00019615889,0.00030723214,1.8715858e-05,0.0054992437,0.017255187,0.002047211,0.9809859,0.013974607
0.9803127,3.4570694e-06,0.0011180639,5.170703e-05,1.6391277e-06,0.005192369,0.0061754882,0.0016257763,0.009514868,0.018945783
0.0055529475,0.00033131242,0.90784746,0.0036129057,0.446798,0.0033791363,0.010099977,0.00082466006,0.016458005,0.012075812
1.4901161e-07,0.0123176575,0.65610814,0.9991796,0.000695616,0.033625215,0.77134866,2.0295382e-05,0.00010666251,3.3080578e-05
0.98185086,1.4007092e-06,0.00025758147,7.402897e-05,1.1086464e-05,0.005360216,0.009959489,0.00255692,0.0027003288,0.016016215
0.00039863586,3.516674e-05,0.0030697882,0.004732907,1.013279e-06,0.00029465556,0.022674143,0.006869644,0.99111265,0.002462864
2.9712915e-05,0.00018507242,0.00010368228,0.00033429265,9.894371e-06,0.014323562,0.997781,0.00014561415,0.00046479702,0.0008738339
0.0093590915,0.007328093,0.9017862,0.007794678,0.01087746,0.0036605895,0.014485329,0.00052043796,0.076848924,0.13960806
0.0020816326,2.0861626e-07,4.938245e-05,4.8339367e-05,1.2606382e-05,0.0006764233,0.004797429,0.0007021129,0.99673194,2.1010637e-05
1.475215e-05,0.86249566,0.030760318,0.009749562,0.04718426,0.8329711,0.032846957,9.23574e-05,0.15487102,0.003399551
0.00041928887,0.0035088062,0.0030509531,0.9956813,0.01997137,0.027098179,0.031197697,0.00029477477,0.0043513477,0.013312757
2.9802322e-08,0.99782836,0.0019488931,0.9996208,0.009418637,0.02732566,0.00999254,2.682209e-07,0.23607254,1.5079975e-05
0.5344397,1.2427568e-05,0.00012931228,0.00015774369,6.9737434e-06,0.0048332214,0.009015501,0.1784535,0.47695428,0.022481024
0.0016240478,0.00012987852,0.0014247596,0.0003066361,1.3321638e-05,0.99907225,0.018792301,0.00396803,0.02242741,0.00079634786
0.9425297,1.3023615e-05,0.00071048737,0.0002990365,1.5974045e-05,0.0073426664,0.009203911,0.02295962,0.0048076212,0.059380412
2.9802322e-08,0.006256908,0.96265507,0.024251759,0.0039052963,0.9998994,0.009136766,0.000100404024,0.028505564,9.328127e-05
0.5021037,5.155802e-06,0.00020548701,0.000115484,1.1920929e-06,0.0067674816,0.013209999,0.0072161853,0.6979934,0.008448511
5.364418e-07,6.28531e-05,0.0011829734,0.9999504,0.77824426,0.0013533831,0.0025792122,0.00018951297,6.648898e-05,0.00024935603
0.0010358095,1.8715858e-05,0.00018146634,0.0008049607,8.165836e-06,0.0016882718,0.00690189,0.00214383,0.9986148,0.0001693666
0.87014645,3.540516e-05,0.0006966889,0.0008817017,0.00020608306,0.014022976,0.014756709,0.031147271,0.026633501,0.041451126
0.0001938641,3.993511e-06,2.938509e-05,0.99994195,0.0012041926,0.007621199,0.0045422018,1.7821789e-05,0.020844996,9.834766e-06
0.9762676,6.854534e-07,0.00036901236,0.0001437962,1.0758638e-05,0.008311272,0.0064385533,0.000498116,0.014802873,0.008906573
0.0,0.0,0.0,0.0,0.0,0.0,0.0,0.0,0.0,0.9999988
0.0,1.8924475e-05,1.1026859e-06,0.9999973,2.9802322e-07,0.0005429089,0.9992223,4.4703484e-07,1.6212463e-05,0.0
0.0,0.00025197864,0.024923265,0.0006657243,0.1706737,1.0,0.001051873,0.000119030476,0.00022414327,4.172325e-07
0.98593175,4.172325e-07,0.0004886985,0.00015410781,1.642108e-05,0.0018529892,0.0032118857,0.00033932924,0.0006843507,0.005968958
0.0,0.0,0.0,0.0,0.0,1.0,0.0,0.0,0.0,0.0
0.013826489,1.2010336e-05,0.0002309978,0.0008022487,0.00023567677,0.0033327043,0.0034957528,0.0015678704,0.98917323,0.00030088425
0.004149705,0.00011450052,0.00024056435,0.0004962981,2.4676323e-05,0.0023003519,0.01206556,0.00068706274,0.99622405,0.0020883381
0.2579025,8.34465e-07,4.4375658e-05,2.8520823e-05,3.5762787e-07,0.0012940168,0.0057376623,0.0009878874,0.7841188,0.0070920885
0.00036790967,0.0047400296,0.004891932,8.970499e-05,0.010974437,0.033488214,0.8916204,0.00037261844,0.00051933527,0.0018033683
0.05698791,1.2814999e-06,0.00012522936,0.00019821525,2.0623207e-05,0.0053312182,0.01809743,0.7972311,0.033466727,0.040435344
0.08634701,0.002298534,0.50625217,0.0005545616,4.3809414e-06,0.0030617118,0.0031983852,0.0064835846,0.00037881732,0.112567246
0.0090889335,5.6296587e-05,0.00027814507,0.00030091405,1.2487173e-05,0.0032305121,0.011079669,0.000521034,0.99543244,0.0013443828
6.1392784e-06,0.9978309,0.00079098344,0.0036248863,0.00026276708,0.018180043,0.0054774582,0.00013932586,0.0021643043,0.0030676723
0.00042751431,0.096744835,0.037091553,0.98830056,0.049307674,0.013881385,0.021349967,5.4210424e-05,0.2934509,0.0062362254
0.016678333,0.023828864,0.025764555,0.0029765964,3.734231e-05,0.008671582,0.01168716,0.00015103817,0.06076333,0.80504644
0.070917904,2.0861626e-07,0.00067058206,3.46303e-05,4.0233135e-06,0.0002438426,0.0008495748,0.98995185,6.41346e-05,0.0013272464
1.847744e-06,2.8192997e-05,0.00014400482,0.9999969,0.053553373,0.021185666,0.006830454,5.453825e-06,0.4714788,3.5762787e-07
0.8920084,4.9442053e-05,0.0074921846,0.00015953183,1.0967255e-05,0.013233334,0.010251045,0.006826699,0.14213687,0.03177935
0.98549867,6.854534e-07,0.00029411912,4.5210123e-05,1.66893e-06,0.009816796,0.006298244,0.0024123788,0.005865991,0.006046802
0.9958699,0.0,0.00042545795,3.516674e-06,2.3841858e-07,0.0006991923,0.0010041893,0.0006554127,0.00073486567,0.00026381016
0.93141663,6.2584877e-07,0.0008032322,1.9073486e-05,1.8775463e-06,0.0036649406,0.0042588413,0.0012070537,0.10576308,0.008272886
3.2782555e-06,0.000898391,0.2521606,0.0021391213,0.63368446,0.7533128,0.041738033,0.0022875965,0.98558635,3.9041042e-06
4.428625e-05,2.1785498e-05,0.0011142492,0.00017556548,1.8656254e-05,0.99999595,0.001788348,0.00875324,0.0036344528,0.00012475252
0.9755733,3.7252903e-06,0.00055378675,0.00012248755,9.4771385e-06,0.0039693713,0.008111507,0.0005161464,0.0050605834,0.044068873
0.93448895,1.5556812e-05,0.0005299449,0.0006850958,2.0384789e-05,0.002700746,0.010482103,0.00040593743,0.002196014,0.22711864
0.9938361,2.9802322e-08,0.00015062094,4.798174e-06,2.9802322e-07,0.001599133,0.0024505258,0.0014758706,0.00024691224,0.004160166
0.006341636,0.0018763244,0.0009224713,0.0021112263,5.1766634e-05,0.00048705935,0.019136906,1.0967255e-05,0.08466387,0.92452574
0.001977414,0.06822145,0.12762365,0.0030942857,0.00041168928,0.020866662,0.06550118,0.000467062,0.973293,0.0047717094
0.028345138,0.001404345,0.8972181,0.0040249527,8.204579e-05,0.009022146,0.0072984397,0.002506584,0.003971964,0.0203166
0.0026049316,0.002788484,8.156896e-05,0.00034829974,9.387732e-06,0.041644454,0.57416457,0.00321275,0.9519532,0.0032460392
0.0045936108,1.6123056e-05,0.0012690127,0.00028544664,0.09398565,0.83789086,0.09330651,0.008247197,0.024041027,0.0005900562
0.6370715,2.7418137e-05,0.00020900369,0.0043970644,2.1487474e-05,0.0059774816,0.008965969,0.07314366,0.013733417,0.28880164
0.007983744,2.3752451e-05,0.0003232956,0.9997427,0.0005708039,0.015038937,0.009241223,5.4836273e-06,0.0027832687,1.3291836e-05
5.7280064e-05,0.0014213622,0.04443401,0.0010222495,0.008083463,0.0016756058,0.044263124,0.0027047098,0.9937566,0.0020303726
0.9885614,1.4007092e-06,0.00028651953,2.5123358e-05,8.6426735e-07,0.003783822,0.004454851,0.00018197298,0.003393948,0.009314626
0.09517729,6.556511e-06,0.0007635355,0.0009964406,4.4703484e-06,0.0016058087,0.0035621226,0.83775246,0.0870156,0.032729387
0.9593333,8.940697e-06,0.00047042966,8.7052584e-05,7.778406e-06,0.007242292,0.011934221,0.0001322031,0.026919872,0.013235807
0.0015318096,2.8163195e-05,0.00020334125,0.00028547645,0.00014600158,0.00160864,0.010481983,0.001250118,0.99806976,0.00044506788
0.0001064837,0.95147395,0.0005297661,0.024984509,0.00038042665,0.013365924,0.061177164,6.7949295e-06,0.9826046,0.00031870604
0.99626374,6.854534e-07,0.0008491874,2.8550625e-05,1.8775463e-06,0.0022705495,0.00429824,9.468198e-05,0.0002900064,0.0031198263
0.80754304,5.00679e-05,0.09708649,0.0004183352,0.00013431907,0.011107981,0.011824369,0.0011740625,0.032617927,0.0061297417
5.990267e-06,0.00372532,0.0003721416,0.9982645,0.0022057295,0.046675056,0.5224828,1.4364719e-05,0.8747369,2.8908253e-05
0.94780236,8.940697e-08,0.0003052652,4.544854e-05,7.0631504e-06,0.0020385385,0.00216797,0.2151424,0.0010613203,0.004415989
0.00030758977,0.00043156743,0.99823076,0.01719588,0.0020900965,0.0046340823,0.013336301,0.0011689067,0.18990341,0.005525321
0.0034787059,0.008274913,0.0029546618,0.0016505718,6.508827e-05,0.02610597,0.902179,0.00080797076,0.23127821,0.03336984
8.684397e-05,0.01565209,0.027740538,0.0005002916,2.4586916e-05,0.016440868,0.010354042,2.8342009e-05,0.14086112,0.77384126
0.9763671,1.6391277e-06,0.0002632439,4.8279762e-05,4.5895576e-06,0.005301386,0.010049313,0.00071945786,0.012060165,0.010554016
0.09111351,0.00010034442,0.021617621,0.00042968988,6.464124e-05,0.941525,0.016477853,0.0017155707,0.003928572,0.0015363097
5.9604645e-08,0.9663161,0.0007959306,0.999087,2.2917986e-05,0.013025463,0.030629486,2.9802322e-08,0.95524395,9.208918e-06
9.834766e-07,0.004802346,0.007320106,0.0014237761,0.00026002526,0.9994706,0.67748076,5.5104494e-05,0.011079609,0.0003889203
3.0189753e-05,3.5762787e-06,0.4094295,0.00015801191,6.747246e-05,0.00011193752,0.0011137724,0.9992777,0.0006559491,0.0013379157
0.00032562017,3.1024218e-05,0.00012087822,4.0620565e-05,9.23872e-07,0.0072936714,0.026498497,0.0029540956,0.95176274,0.03398922
0.00024211407,0.9885464,0.002970934,0.0056940913,0.0003273189,0.030944288,0.036223203,8.109212e-05,0.027472824,0.04749593
5.751848e-06,0.0030801594,0.93751717,0.99873483,0.0016518831,0.009638846,0.008035004,4.1514635e-05,0.9479489,1.6510487e-05
0.00057664514,2.9295683e-05,0.00025597215,0.00015643239,3.7252903e-06,0.00096547604,0.010247022,0.011337757,0.99527776,0.006546378
4.7683716e-07,0.0034152567,0.01444757,0.99962664,0.8690132,0.9799284,0.020527363,2.9027462e-05,0.0010674596,4.5478344e-05
0.9522615,1.3589859e-05,0.0027589202,5.298853e-05,1.1622906e-06,0.0064917803,0.005411893,0.0041849613,0.00043088198,0.022719026
0.9947196,1.7881393e-07,0.00015565753,1.12354755e-05,1.5199184e-06,0.006721288,0.0040536225,0.00053983927,0.0018208623,0.0015366971
6.517768e-05,0.000505954,0.07842335,0.00078710914,0.00016650558,0.997474,0.002556622,0.0009050369,0.002922386,0.0081143975
0.03428012,2.9802322e-08,0.0010173917,2.6285648e-05,4.7683716e-07,0.00014165044,0.00041681528,0.99698085,2.2768974e-05,0.0011479855
0.0,6.3598156e-05,0.017135918,7.352233e-05,7.748604e-07,1.0,1.013279e-05,4.172325e-07,0.025178105,3.0696392e-06
0.09480038,9.924173e-06,0.0006509125,0.00013464689,1.5467405e-05,0.98596275,0.010324478,0.0014531016,0.02545625,0.0029417276
3.5762787e-07,3.9845705e-05,0.011572093,7.7188015e-06,7.107854e-05,0.9999999,0.00024104118,2.3841858e-05,0.015459985,2.1994114e-05
0.0019728541,8.353591e-05,0.00543046,0.00024354458,2.2947788e-06,0.0033822358,0.016740441,0.0010190904,0.14605898,0.8174505
4.7028065e-05,7.045269e-05,0.99737537,0.0033175647,0.00022953749,0.0011266768,0.00410527,0.16973865,0.0010687709,0.0037498176
1.1920929e-06,4.3213367e-06,6.508827e-05,0.9999996,1.1742115e-05,0.0008608997,0.0029224753,1.0728836e-06,3.0696392e-06,5.066395e-07
0.27883643,0.00019851327,0.00068223476,0.0010263026,0.00026968122,0.018087655,0.029789388,0.0015699565,0.6028563,0.09314239
0.9972497,0.0,0.00023531914,5.751848e-06,2.026558e-06,0.0017364919,0.0015218854,0.0005531609,0.00052177906,0.00089135766
0.0033093393,9.49502e-05,0.0004017949,0.0012583733,0.00069975853,0.99813604,0.021079272,2.9474497e-05,0.0035392046,0.00044941902
0.00659883,0.00011125207,0.002610743,0.00096720457,4.0322542e-05,0.02386728,0.8849219,0.0040346086,0.082179576,0.0038807988
0.0002681613,0.043476075,0.016314238,0.009948552,0.000143677,0.015278935,0.008221149,7.0393085e-05,0.0034877956,0.29274338
0.69423664,1.2814999e-06,0.001721859,3.093481e-05,4.261732e-06,0.39854434,0.0046628416,0.00075152516,0.0012483895,0.0014583766
0.81660473,7.4505806e-06,0.00024345517,0.0006124377,8.627772e-05,0.005419135,0.009236753,0.004363537,0.08717519,0.028636575
0.51624775,0.000844717,0.00076946616,0.0003013909,3.993511e-06,0.006571561,0.0137832165,0.001522094,0.005300075,0.53874475
5.5909157e-05,0.00024744868,0.0009011626,0.00068828464,5.1259995e-05,0.98800975,0.016159654,0.0055250227,0.7392347,0.0007466376
0.14930725,7.939339e-05,0.0026895702,9.3996525e-05,0.0005488694,0.0049178004,0.038845867,0.24360585,0.006855458,0.04332751
0.0071308315,4.374981e-05,6.7055225e-05,0.00023764372,4.2915344e-05,0.96600115,0.018707722,0.00027769804,0.297997,0.0020026267
0.96677107,0.0,0.00034978986,2.7894974e-05,1.4901161e-07,0.00024041533,0.0016570985,0.071724534,8.46386e-06,0.0044284165
0.3182354,3.710389e-05,0.00018551946,0.011680484,2.771616e-06,0.009078234,0.015528291,0.0029358268,0.5834256,0.10609764
2.142787e-05,0.004574895,0.93502223,0.0021299422,6.338954e-05,0.9849136,0.013528258,0.00017565489,0.004917264,0.0002078414
0.9282814,2.8938055e-05,0.0017076433,0.00013148785,1.5556812e-05,0.009438366,0.011608094,0.00041726232,0.042817563,0.023645252
2.0861626e-07,0.04989651,0.00047332048,0.99997616,0.006198585,0.099431604,0.90943104,1.2516975e-06,0.00060114264,1.0222197e-05
0.99300003,8.940697e-08,0.00042915344,6.854534e-06,9.23872e-07,0.0041052103,0.0024057925,0.004448682,0.00058984756,0.002430588
0.00086313486,0.00042638183,0.00038090348,0.9999069,0.0010304749,0.008972585,0.011373192,9.924173e-06,0.003949523,0.000118494034
0.9774612,2.5629997e-06,0.00024986267,3.8057566e-05,1.3709068e-06,0.0071932375,0.004591584,0.0009851158,0.038686663,0.010965645
0.0008956492,0.00044476986,0.00018256903,0.00041407347,7.3611736e-06,0.0036498904,0.021211237,0.0032049716,0.97522223,0.031632632
0.0,0.018099725,0.06559256,0.0033441484,4.053116e-06,0.9999993,0.0025447607,4.503131e-05,0.002101183,5.7429075e-05
3.0100346e-05,0.00014546514,0.00090932846,0.9997641,0.0026308,0.010170847,0.0148229,0.0003347695,0.0005827546,9.086728e-05
0.99669474,2.9802322e-08,0.00029239058,1.32620335e-05,1.9669533e-06,0.0028809607,0.0035908222,8.3595514e-05,0.0010538399,0.0010493994
0.00026223063,5.7816505e-06,0.000104129314,0.00044071674,1.5199184e-06,0.00055879354,0.0059812963,0.00060129166,0.998829,3.7908554e-05
0.06714091,1.847744e-05,0.9627509,0.00086149573,2.4348497e-05,0.0040208697,0.005632043,0.014764577,0.0018174052,0.0036319792
0.00096052885,0.99426395,0.0027715862,0.0024307072,4.348159e-05,0.009613246,0.008375078,6.8843365e-06,0.0032279193,0.014968216
0.9845551,6.854534e-07,0.00022423267,6.5267086e-05,2.5331974e-06,0.0064410567,0.006968349,0.005538255,0.008233815,0.0077014565
0.00497362,0.00012388825,0.0009114146,0.00078880787,4.2915344e-06,0.0042595863,0.039298505,0.00305444,0.9855479,0.005159378
0.75818825,1.937151e-06,0.00056919456,4.1425228e-05,8.293986e-05,0.007839322,0.012933344,0.010656625,0.07759482,0.003988445
1.1920929e-07,0.065146476,0.815056,0.44909644,0.000816524,0.10152906,0.7876406,8.0794096e-05,0.972431,9.715557e-06
0.061722368,2.0563602e-06,0.00014272332,0.00022801757,1.2695789e-05,0.0015836656,0.008050144,0.0027229488,0.9738506,0.0005464852
0.9762228,5.6028366e-06,0.0007032156,0.00014871359,2.5421381e-05,0.005290985,0.011205673,0.0005108416,0.0023686886,0.044033706
0.15153238,5.9604645e-08,0.0001963675,1.6599894e-05,2.682209e-06,0.00048416853,0.0010487139,0.99074507,8.08239e-05,0.0008761883
0.028902292,7.2717667e-06,0.0005168319,0.00011011958,1.0430813e-06,0.01426959,0.95726866,8.1300735e-05,0.0009624362,0.00062561035
0.7172842,4.7266483e-05,0.00023004413,0.00017079711,5.3346157e-06,0.0066548884,0.013472229,0.001208365,0.29606712,0.041387647
0.86399484,3.0696392e-06,0.0005837977,2.8938055e-05,2.592802e-06,0.0035822392,0.00423941,0.00049066544,0.32336915,0.015438676
0.008383721,5.662441e-07,0.000111848116,1.5169382e-05,2.3841858e-07,0.0004621148,0.005460292,0.00024044514,0.9882949,0.00080406666
0.035653442,0.00030314922,0.0009982288,0.0007828474,0.00015366077,0.0072848797,0.22135249,0.020151436,0.0059064925,0.14311677
0.000697881,0.0036767125,0.013466358,0.0026791394,0.00036531687,0.004660785,0.075693786,0.00057271123,0.9952249,0.00047269464
0.0,9.775162e-06,0.0005193949,0.99999547,0.99791896,0.0019149482,0.0006797612,7.1525574e-07,0.0013710558,4.172325e-07
0.7719292,9.23872e-07,0.00073060393,8.165836e-06,0.00031766295,0.01618591,0.0077982247,0.0015484989,0.07226539,0.008533746
0.76240736,2.82228e-05,0.005332917,8.824468e-05,1.4007092e-06,0.005060345,0.008954346,0.001968354,0.06526497,0.029697388
0.6210215,3.5762787e-07,6.517768e-05,2.2828579e-05,4.172325e-07,0.0043183565,0.006095737,0.002467513,0.4825943,0.00502339
5.6028366e-06,5.990267e-06,2.193451e-05,0.000121474266,2.8908253e-06,0.004580617,0.99993217,2.6345253e-05,0.001013875,0.00017270446
0.0007767081,7.2717667e-06,0.0007713139,0.00021186471,5.725026e-05,0.0024000704,0.0052957237,0.9865055,0.0039038658,0.018166363
2.0861626e-07,0.00015985966,0.0011265278,0.9999652,0.0005488694,0.01230672,0.0074953437,0.00015121698,0.0004889369,1.8686056e-05
8.767843e-05,0.00040635467,0.00018697977,0.0017929375,1.4871359e-05,0.9679154,0.9635223,0.00013104081,0.030399114,0.0002900958
5.2452087e-06,0.0026711524,0.011938244,0.0014273226,0.2550627,0.03971094,0.5428236,0.0008020401,0.99102664,9.313226e-05
0.0008789003,7.349253e-05,0.99370897,0.0013749003,0.00024873018,0.0009847581,0.007967442,0.00092446804,0.3514403,0.019575864
0.0035785437,2.3841858e-07,2.8967857e-05,2.041459e-05,1.9669533e-06,0.00026208162,0.0021967292,0.00023576617,0.9979899,9.801984e-05
0.9781866,3.874302e-07,0.0011506677,6.750226e-05,4.917383e-06,0.0056468546,0.0063484907,0.041383892,0.0038255155,0.0034280121
0.97119856,3.993511e-06,0.001139909,0.0001193285,1.7434359e-05,0.004529923,0.009961039,0.0012978613,0.0010230839,0.029640377
0.0003452301,3.874302e-06,6.181002e-05,0.9999774,8.791685e-06,0.004576355,0.002128452,6.943941e-06,0.0001039803,1.8715858e-05
0.00021153688,1.12354755e-05,0.00014689565,0.99998945,0.00032639503,0.0022310615,0.0069444776,1.937151e-06,6.043911e-05,6.467104e-06
0.0026153028,1.0728836e-06,0.00046795607,3.0606985e-05,1.4305115e-06,0.00053074956,0.008696824,0.0012626946,0.99081707,0.00022730231
0.9844259,1.66893e-06,0.0007133782,9.766221e-05,4.0233135e-06,0.003955692,0.010921925,0.0002847612,0.0032715201,0.0061016083
0.967757,3.1888485e-06,0.0027442873,9.679794e-05,2.8312206e-06,0.007892907,0.010777742,0.005426556,0.017208219,0.009385556
0.48956275,1.7762184e-05,8.428097e-05,7.82907e-05,1.2516975e-06,0.012921929,0.26524752,0.0001822114,0.001268208,0.038701385
0.00048077106,0.000107973814,0.00025129318,0.0002668798,2.0772219e-05,0.07440573,0.9551196,0.004994482,0.0016796887,0.009900123
0.30635878,0.00015848875,0.0020970106,0.000667274,0.00030076504,0.08377805,0.022837818,0.003703326,0.19433531,0.053291887
0.108142346,0.00020939112,0.00243181,0.00028824806,2.4825335e-05,0.01239565,0.5998973,0.00042703748,0.02071938,0.003954619
0.0021579266,0.0014363527,0.001738131,0.0003928244,3.2275915e-05,0.007666707,0.03932801,0.0005443394,0.8271438,0.20363426
0.73146194,1.7881393e-06,0.00019818544,0.00011816621,3.8444996e-06,0.0034365356,0.0056467056,0.03729278,0.5053647,0.010477215
0.0020113885,0.00014600158,0.00042411685,0.0032373667,3.0755997e-05,0.0024783313,0.014028132,0.001164645,0.99710655,0.0014277697
2.3573637e-05,0.97478193,0.0048472583,0.018035084,0.00038313866,0.064921826,0.029286802,6.574392e-05,0.9917476,0.0014051795
0.005729735,0.00014919043,0.00064843893,0.0001630187,1.8537045e-05,0.0031798482,0.012011081,0.0010383427,0.99278474,0.005934149
0.0014927387,1.0162592e-05,0.9970405,0.00035190582,9.959936e-05,0.0009379983,0.0032851994,0.0010569692,0.1906609,0.0010240376
9.569526e-05,0.9990816,0.002003342,0.33177575,0.00097200274,0.0071676373,0.0022162795,5.364418e-06,0.022076428,0.0029158592
0.36339033,2.8014183e-06,0.0001873076,4.2021275e-05,3.427267e-06,0.0024206936,0.010518223,0.00025817752,0.8651364,0.002404213
1.4543533e-05,0.9636342,0.0004927814,0.0019607246,9.050965e-05,0.031648815,0.018333554,3.0368567e-05,0.968573,0.0032971203
0.001180917,0.9499055,0.0072884858,0.03898716,0.00029045343,0.034984797,0.056690276,2.9981136e-05,0.3268608,0.03362736
0.0032133758,0.6323416,0.103740096,0.008190185,0.0035229027,0.0092565715,0.012593299,0.0018516779,0.0050744414,0.2213802
1.4901161e-07,1.2904406e-05,0.0012734234,5.7578087e-05,5.066395e-07,1.0,0.00073349476,8.523464e-06,0.009003341,7.748604e-07
2.4944544e-05,0.94069517,0.061946273,0.021769792,0.014089733,0.048370063,0.13988677,0.011514217,0.029238999,0.0028348565
0.00014489889,0.00028032064,0.9932243,0.0152133405,0.0047541857,0.005437076,0.006261289,0.06233123,0.80140066,0.00062918663
0.6865754,2.476573e-05,0.0005328357,0.00019007921,6.914139e-06,0.00077813864,0.00526163,0.0017256439,7.69794e-05,0.72153556
2.8163195e-05,0.006204933,0.0068621933,0.81191766,0.14824173,0.9998729,0.020542592,8.764863e-05,0.008751035,0.0012827814
0.90671957,6.7055225e-06,0.0017076433,0.00042960048,0.0012080669,0.012132317,0.019428402,0.00045704842,0.019929558,0.0128496885
1.4662743e-05,0.0028468668,0.0011006594,0.99983513,6.660819e-05,0.05660823,0.09902498,4.7683716e-07,0.2629785,1.642108e-05
0.07196936,8.6426735e-07,0.0014178753,0.0002644956,9.4652176e-05,0.00041249394,0.000962466,0.98615354,0.00022095442,0.004340023
0.5400652,1.4126301e-05,0.0019837916,0.00063586235,9.119511e-06,0.007997453,0.0075841844,0.49537635,0.03092435,0.012375236
0.7906049,1.3291836e-05,0.0138501525,0.0003274083,1.3113022e-06,0.005482614,0.01250568,0.033575654,0.0026572645,0.10400507
0.9921626,2.9802322e-07,0.00019285083,1.630187e-05,2.2351742e-06,0.0032604039,0.0049779713,0.0009059012,0.0016087592,0.0030216575
0.006341636,0.0018763244,0.0009224713,0.0021112263,5.1766634e-05,0.00048705935,0.019136906,1.0967255e-05,0.08466387,0.92452574
0.006448835,1.1622906e-06,4.9829483e-05,0.00029623508,4.2915344e-06,0.0032910109,0.0035887957,0.9670713,0.32497975,0.013841361
0.00047686696,4.2706728e-05,0.00016456842,0.0020525157,6.4373016e-06,0.0011719465,0.006229371,0.0011000335,0.99764264,0.00032150745
2.3424625e-05,0.00055360794,0.0006106198,0.99901676,0.016961813,0.011179924,0.011461645,9.4503164e-05,0.023957342,0.0024930835
0.110259,0.00032743812,0.0065084696,0.001167804,0.004605621,0.013046712,0.029783636,0.025351524,0.48666152,0.04677576
7.748604e-07,0.04669857,0.0013999939,0.9997176,0.0019219518,0.011615247,0.025378197,6.8843365e-06,0.3499728,0.00033700466
0.0030094385,3.2544136e-05,0.00041419268,0.0008803904,6.517768e-05,0.0015087426,0.015624911,0.0019162893,0.9968351,0.0006168783
0.9879255,1.1920929e-06,0.00032547116,1.8566847e-05,1.8179417e-06,0.0038522184,0.003159821,0.0004593432,0.020073026,0.010289907
0.30221093,6.854534e-07,0.00066170096,3.6418438e-05,2.4408102e-05,0.0110604465,0.26415727,0.00064623356,0.00044059753,0.00067943335
0.97059834,9.834766e-07,0.0003400147,0.00024285913,4.9471855e-06,0.0015467107,0.0058368742,0.0058691204,0.00038775802,0.05901864
0.0,0.0104343,0.00053459406,0.9998571,0.9172647,0.99998474,0.6774203,2.9802322e-07,0.00062021613,2.9802322e-08
0.028484434,0.007813275,0.22626355,0.0076700747,0.00021085143,0.014508009,0.020786285,0.05377108,0.024061441,0.31284672
2.9146671e-05,1.0222197e-05,4.3421984e-05,0.99999726,2.503395e-06,0.002799362,0.0025835335,5.9604645e-07,8.821487e-06,4.49121e-05
0.0022354126,7.122755e-06,9.715557e-06,8.749962e-05,8.940697e-08,0.02891475,0.99480164,0.00027015805,0.00016123056,0.0010385513
0.164453,1.7881393e-07,0.0005826056,1.719594e-05,2.0861626e-07,0.00019699335,0.0017872751,0.9763998,3.695488e-06,0.0070768595
0.00043717027,3.4719706e-05,0.0001629889,0.99994344,0.0007875562,0.023003459,0.015069008,1.8179417e-06,0.02811274,3.516674e-06
5.543232e-06,0.98817146,0.0007264018,0.00271824,2.1278858e-05,0.04055485,0.1151008,1.218915e-05,0.51992077,0.0008120239
0.002662927,0.0001257956,0.00037193298,0.0014138818,0.00015485287,0.00043195486,0.003684193,0.0008868873,0.0010204315,0.9941993
0.00037813187,0.00016114116,0.00033283234,0.00024673343,1.4901161e-06,0.004154563,0.016812533,0.0017954409,0.53726095,0.6788004
0.87296593,6.2286854e-06,0.00030478835,7.414818e-05,1.8894672e-05,0.007441759,0.005538732,0.0015127659,0.254239,0.009178728
0.0017853379,2.655387e-05,0.00023400784,9.724498e-05,6.720424e-05,0.99998343,0.004903972,8.586049e-05,0.0075478554,0.0009702742
0.0,3.8146973e-06,4.49121e-05,0.99999964,0.9727336,0.0014603138,0.0013925135,4.7683716e-07,0.00011733174,2.0861626e-07
0.009297729,0.0,2.6226044e-05,3.9339066e-06,2.9802322e-08,3.5583973e-05,0.00016570091,0.9991303,1.6003847e-05,0.0006689429
0.0012455881,1.552701e-05,0.00015670061,6.6161156e-05,9.23872e-07,0.0012436211,0.01617834,9.533763e-05,0.99783003,0.00032413006
0.98307383,5.364418e-07,0.0005041957,8.821487e-06,0.0,0.0007543266,0.0029019415,0.008379519,7.6919794e-05,0.009638667
0.0031408966,1.1920929e-06,0.00022044778,0.0005955994,0.00034362078,0.0017473996,0.0010943413,0.9939698,0.020712316,0.011111617
0.0005764663,1.3053417e-05,0.9975842,0.003330052,0.017630994,0.0008995533,0.0033272803,0.0014209151,0.06708419,0.0020371377
0.0023915172,4.3809414e-06,0.00076425076,0.00011661649,1.1622906e-06,0.0008176267,0.008628726,0.0011671185,0.99604297,0.000202775
0.00019010901,0.0025726855,0.0006811023,0.0004106462,5.722046e-05,0.049227268,0.96086097,0.0009138584,0.07756245,0.006244242
0.027565658,1.4305115e-06,0.0001488924,4.643202e-05,1.937151e-06,0.0010153651,0.0073783696,0.0018032491,0.96561795,0.0063055158
0.0,0.0016215146,0.0007787645,5.9515238e-05,7.987022e-06,0.99999684,6.0617924e-05,4.2825937e-05,0.002580136,0.0007009506
0.47550184,2.3841858e-07,7.7188015e-05,2.4169683e-05,9.23872e-07,0.0032462776,0.0022838712,0.7667856,0.05155915,0.0027980506
0.9643179,1.2516975e-06,0.0006637573,4.094839e-05,5.066395e-07,0.0013712049,0.0027003288,0.01797986,0.0015925169,0.0052999556
0.0069309175,0.0021867156,0.0042119026,0.0011246502,2.4855137e-05,0.0030610561,0.008018762,0.00024476647,0.9870279,0.010093838
0.00054857135,0.00010347366,0.00021761656,0.00019901991,4.172325e-07,0.02102691,0.99878913,1.2725592e-05,0.00021526217,0.0023153126
0.98211616,3.0994415e-06,0.00032877922,8.5651875e-05,2.3841858e-07,0.00526762,0.003968358,0.0017772913,0.002380252,0.05922702
0.00016137958,0.00017386675,0.00036412477,0.9999813,0.00010344386,0.012333542,0.0119794905,9.357929e-06,0.00057286024,5.0485134e-05
0.0022397637,0.0,2.9057264e-05,5.930662e-06,7.748604e-07,8.842349e-05,8.6933374e-05,0.9999021,6.6548586e-05,0.00024345517
0.007452041,2.9534101e-05,0.00083112717,0.00058469176,0.000121831894,0.0013266802,0.008896887,0.00052273273,0.9957081,0.0003504157
0.31774265,0.00063186884,0.009884059,0.0012931526,4.529953e-06,0.0060770214,0.027605146,0.00075161457,0.5082692,0.037099034
8.34465e-07,0.0,1.0222197e-05,7.212162e-06,9.089708e-06,9.435415e-05,0.000597924,0.9999968,6.482005e-05,0.00019952655
0.0015938878,0.0014149249,0.00068324804,0.0010657609,8.434057e-06,0.015657753,0.9769381,0.0010743439,0.004254341,0.039696068
0.054985344,8.6426735e-07,0.00041791797,4.7385693e-05,1.0162592e-05,0.0019105375,0.010441989,0.0008017421,0.9648951,0.0010169744
0.006341636,0.001875937,0.00092226267,0.0021111667,5.170703e-05,0.00048696995,0.01913488,1.0937452e-05,0.084673524,0.9245296
0.00015574694,0.022271156,0.010471463,0.015893936,0.004892081,0.01954621,0.061404884,0.00030469894,0.92228264,0.023081452
0.029364496,1.1920929e-06,7.688999e-05,4.696846e-05,2.503395e-06,0.0012742579,0.011475772,0.0015820265,0.9788041,0.001473695
3.8832426e-05,9.089708e-06,2.1278858e-05,0.00077718496,5.4836273e-06,0.99993503,0.50438946,0.0009035468,0.00032263994,0.00010201335
0.99496984,1.4901161e-07,0.00052818656,8.493662e-06,3.1888485e-06,0.0024670959,0.0052244663,0.00019809604,0.001245141,0.0016789138
0.98415625,5.9604645e-08,3.582239e-05,6.1690807e-06,4.7683716e-07,0.0017206967,0.0020355284,0.001619637,0.012810588,0.0017998815
0.97227705,2.0861626e-07,0.00016081333,8.46386e-06,2.682209e-07,0.0020864904,0.0017800331,0.027941525,0.0006341934,0.00252527
0.95536137,2.2351742e-06,0.0042881966,0.0004904866,3.516674e-06,0.006050855,0.0073783696,0.02236092,0.0022232234,0.020944476
0.003895253,9.208918e-06,0.00027361512,0.0012325644,7.7843666e-05,0.0019446313,0.008516192,0.0052666366,0.9945433,0.00034567714
0.9791968,6.109476e-06,0.00053688884,0.00030606985,4.142523e-06,0.005808294,0.007429272,0.0036162138,0.0016814768,0.026670635
0.012209594,9.742379e-05,0.00067806244,0.0016874671,8.493662e-05,0.99949515,0.026847392,0.00043705106,0.0057881474,0.0021986663
0.0940159,0.00023412704,0.000677228,0.0009457469,1.3917685e-05,0.007495284,0.015163153,0.0025640428,0.92981744,0.0109806955
0.01970449,2.0861626e-07,5.3584576e-05,5.143881e-05,1.937151e-06,0.00052690506,0.0015013218,0.9934812,0.00043976307,0.013488829
0.0006631613,0.82001734,0.2159917,0.0020721257,0.00015807152,0.018751562,0.06387964,0.0012865067,0.01283133,0.08265042
4.6789646e-06,0.9993584,0.00035253167,0.00394547,0.00039082766,0.03605309,0.0010836124,9.87947e-05,0.0051692426,0.0023825765
0.9975954,0.0,5.9336424e-05,2.2649765e-06,1.4901161e-07,0.0003656149,0.0012812018,0.00017926097,5.441904e-05,0.0012649298
0.00046357512,4.416704e-05,0.0074678957,0.0021947622,0.0003811419,0.9993713,0.0013836622,0.0003247261,0.31179452,0.00088074803
0.99139,4.7683716e-07,0.00070765615,9.62615e-06,4.7683716e-07,0.0034196973,0.002146691,0.0003797412,0.007843703,0.0064201355
0.00014951825,0.001783222,0.012582213,0.99983,0.70463514,0.010878503,0.005496353,4.440546e-06,0.3093974,7.3462725e-05
0.0090966225,0.0005286634,0.0014365315,0.0004530549,2.2411346e-05,0.0028614402,0.016727448,0.0004852414,0.98704255,0.010745555
0.29349113,0.0,2.95043e-06,7.033348e-06,8.940697e-08,0.0002297163,0.0010887086,0.89094007,0.0015022755,0.0040990114
0.013234854,4.6789646e-06,7.1913004e-05,7.420778e-05,1.4871359e-05,0.0040069222,0.009270579,0.004611492,0.98401964,0.0021026134
0.9919242,9.834766e-07,0.00054448843,6.195903e-05,5.5134296e-06,0.003605932,0.0070596635,0.00040602684,0.002164185,0.007865518
0.01097852,0.00016313791,0.006230235,0.0008805096,0.0002540052,0.0019103289,0.016501397,0.0006775558,0.97394896,0.010691047
0.009800851,0.00055527687,0.0007084608,0.9991448,0.00015473366,0.024939537,0.012999356,4.3809414e-06,0.10300568,0.00038695335
0.98275924,8.255243e-06,0.0010780096,5.733967e-05,3.963709e-06,0.006227076,0.0098517835,0.0013807416,0.002096802,0.022865742
0.044154793,8.624792e-05,0.00015515089,0.00027662516,1.3887882e-05,0.0050801933,0.014663219,0.0003376603,0.9741193,0.0065244436
4.7683716e-07,0.00033012033,0.0048348606,0.00021833181,2.592802e-05,0.99999994,0.0012971759,2.7567148e-05,0.0045233667,1.7821789e-05
0.5691347,3.6895275e-05,0.0015769899,0.00038090348,0.00018075109,0.022435397,0.020038128,0.0006060004,0.6202713,0.003926486
0.032631695,0.00015854836,0.00011396408,0.00018149614,1.630187e-05,0.004363239,0.017156899,0.00021746755,0.97158575,0.016556203
0.0030523539,0.00022986531,0.0021994412,0.99988985,7.864833e-05,0.00920108,0.015161037,1.8298626e-05,4.851818e-05,0.00013536215
0.9912789,0.0,8.392334e-05,3.1590462e-06,1.2516975e-06,0.004220575,0.0014403462,0.0015123785,0.005553186,0.0008443594
9.536743e-07,0.0009897053,0.00017869473,0.9998959,0.0048298836,0.014546871,0.1023255,0.00010919571,0.00048056245,0.00020772219
0.0037581325,0.00046989322,0.0022568703,0.9991536,0.030707538,0.011950165,0.01429379,9.2417e-05,0.03726107,0.0003746748
1.23381615e-05,4.142523e-06,1.3798475e-05,9.223819e-05,4.708767e-06,0.023935229,0.9876201,0.2788492,0.0005596578,0.0006019175
0.0011559129,1.8775463e-05,0.0007354021,3.632903e-05,1.1026859e-06,0.002420634,0.012788743,0.00095260143,0.11518538,0.82473147
0.0024566054,0.00077682734,0.0013873875,0.9990952,0.012981772,0.014591724,0.011027992,4.145503e-05,0.015647024,0.0006438494
0.08444634,0.0003489554,0.0017881095,0.0028244555,0.00014072657,0.010605663,0.024269253,0.001124531,0.92939794,0.009323388
7.748604e-07,0.9977782,0.00090551376,0.9686942,0.00017046928,0.0077467263,0.01485464,1.7881393e-07,0.9535215,2.631545e-05
8.761883e-06,5.248189e-05,7.805228e-05,0.9999993,0.00054579973,0.01652518,0.0059987605,1.1920929e-07,0.0009454787,1.1026859e-06
0.15518504,2.2947788e-05,0.0002887249,0.00022730231,2.0861626e-07,0.0018621683,0.013382554,0.0020076036,0.025459051,0.846674
1.2516975e-06,2.7149916e-05,0.00020509958,0.9999463,0.0033405423,0.002326429,0.00209862,0.00022032857,0.00017568469,0.00019964576
1.1622906e-05,0.0012920201,0.00013336539,0.0003373623,5.930662e-06,0.03234887,0.99448967,0.00025132298,0.4921094,0.0003360808
0.014915705,0.0004975498,0.9515966,0.003982961,0.015545845,0.0026699305,0.0122278035,0.00041022897,0.09711841,0.02946645
0.9875376,4.172325e-07,0.00018489361,1.6182661e-05,2.9802322e-07,0.0041869283,0.004003048,0.0025807917,0.0016994476,0.012201101
0.8480414,8.821487e-06,0.0003864467,8.8989735e-05,1.1026859e-06,0.0067783594,0.007220924,0.005269468,0.08679551,0.05111158
5.275011e-05,1.4483929e-05,0.0024892986,0.00070104003,5.415082e-05,0.9999969,0.001987815,0.00037622452,4.9054623e-05,0.00016540289
5.9604645e-08,0.0,0.0,0.0,0.0,0.0,8.940697e-08,0.0,0.0,1.0
0.9844045,1.1920929e-07,0.00041154027,5.3942204e-06,1.7881393e-07,0.0020298064,0.0028474927,0.00824827,0.0003015101,0.0029532611
0.022168815,3.6358833e-06,0.00012496114,6.392598e-05,4.23193e-06,0.0038024485,0.009766638,0.00060883164,0.98989844,0.00048807263
0.96234477,5.453825e-06,0.0018952489,0.0011053085,0.0001052618,0.007648021,0.0107296705,0.0006852448,0.005834371,0.023278266
0.9723704,5.9604645e-08,0.00011777878,6.8843365e-06,2.0861626e-06,0.0024528205,0.0039497316,0.0004413128,0.087874115,0.0012757778
0.001308471,0.0070843697,0.0002914667,0.000395149,4.7445297e-05,0.016289502,0.9645604,0.0005442202,0.024704546,0.03724706
0.35155857,4.670024e-05,0.792423,0.0007262826,0.0007406175,0.006824225,0.008370161,0.040585548,0.005887985,0.0020774305
0.88215137,8.970499e-06,0.0020761788,0.0001116693,9.587407e-05,0.0025091767,0.010909349,0.10176176,0.0003052354,0.0352118
0.0007586181,0.0023936927,0.0009878576,0.006383717,0.0012243986,0.03553024,0.012648523,0.0002617538,0.02182275,0.9338264
0.0009305179,0.8299524,0.01371038,0.011143059,0.00015938282,0.009945005,0.01806724,9.545684e-05,0.57075363,0.16184399
0.97271997,1.3709068e-06,0.000670135,0.000116080046,6.854534e-06,0.0018592477,0.0058891475,0.0010082126,0.0018162429,0.02997315
0.00030955672,0.008404046,0.006098002,0.99934053,0.052240998,0.010671139,0.0137452185,2.732873e-05,0.6477959,0.00061640143
0.3617319,0.00015479326,0.5267808,0.0006157458,0.0001193881,0.012649387,0.008095801,0.01812312,0.12294638,0.002623856
0.10793197,2.0563602e-06,4.938245e-05,3.4719706e-05,3.695488e-06,0.0032643378,0.014619112,0.0016826391,0.8784295,0.014377058
2.2172928e-05,0.020444214,0.59344184,0.8948186,0.00028708577,0.009084851,0.015724689,3.6090612e-05,0.9926127,6.493926e-05
0.38530988,4.4703484e-05,0.0061947703,0.0009099245,7.325411e-05,0.0043747723,0.010716587,0.60254073,0.010074258,0.060772866
0.0068303347,9.265542e-05,0.44798106,0.0006684661,0.00021088123,0.0017263293,0.010758668,0.00044345856,0.96721053,0.000846982
0.87356365,3.2812357e-05,0.0012720525,0.0004067421,7.107854e-05,0.006561607,0.018474728,0.0005635321,0.021134704,0.06200865
1.1920929e-07,0.008309662,0.0013357103,0.99988806,5.3942204e-06,0.008232981,0.027535766,4.172325e-07,0.9905949,3.5762787e-07
8.940697e-08,7.2717667e-06,5.108118e-05,1.0,7.778406e-06,0.0003604293,0.0016199648,4.7683716e-07,4.4703484e-06,1.1920929e-07
0.0040177703,0.0036830902,0.0020464063,0.0008572042,3.08156e-05,0.0035509765,0.018736571,0.0005559027,0.9930376,0.0026872456
0.0,0.8182136,0.01158765,0.9999765,0.0367139,0.10973051,0.23183146,4.172325e-07,0.24066374,1.0728836e-06
0.99067813,2.413988e-06,0.0003567338,0.0001771748,2.6524067e-06,0.0071466565,0.0068406165,0.0023961961,0.0003014803,0.021892369
0.00017827749,0.95610225,0.024258614,0.0062901974,0.00032249093,0.012992501,0.022757083,6.16312e-05,0.8105906,0.03900385
0.9908101,1.4901161e-06,0.0014743507,5.6684017e-05,1.4990568e-05,0.0042515695,0.005636215,0.00012421608,0.0024080575,0.0016181171
0.003831327,2.95043e-06,0.00088799,6.79791e-05,8.672476e-06,0.0006146729,0.010674059,0.00068581104,0.9951759,0.00021243095
0.0031255782,0.006408155,0.009436756,0.0030983686,0.00013297796,0.0040899217,0.018052131,0.0002156496,0.9756446,0.027209222
0.0002233088,0.9689197,0.015224159,0.70610785,0.0037618876,0.021795869,0.011837274,1.2397766e-05,0.16409037,0.026347935
0.8165059,1.1920929e-07,5.9247017e-05,5.6624413e-06,7.867813e-06,0.0035598278,0.00604102,0.0008651614,0.23551264,0.00071540475
4.172325e-07,2.2113323e-05,0.000762105,0.013206959,2.4735928e-06,1.0,0.00022104383,1.2010336e-05,0.0019007921,5.7965517e-05
0.93077123,1.4901161e-07,8.624792e-05,3.33786e-05,2.9802322e-07,0.0011438727,0.003129959,0.05251348,4.1157007e-05,0.04132873
1.1026859e-06,0.0,7.748604e-07,5.3346157e-06,0.0,1.2785196e-05,0.0010789335,0.9576137,0.9998895,7.7307224e-05
0.00041115284,0.97753644,0.0233922,0.048380286,0.0008651018,0.009498388,0.023548037,2.503395e-05,0.81892824,0.029970527
0.9711822,1.3709068e-06,0.00052419305,2.5987625e-05,1.7881393e-07,0.0010779798,0.0026669502,0.0008339882,0.00018399954,0.07741463
0.00019568205,0.020845473,0.004663199,0.0009470582,8.940697e-05,0.9983103,0.5489111,0.00018137693,0.17504421,0.0008442402
0.0014706552,0.000116318464,0.0009803474,0.0008299053,5.686283e-05,0.0023272038,0.011457324,0.0008523166,0.99797916,0.0003402233
0.00036478043,0.8524134,0.024552494,0.102469146,0.0007510483,0.025456011,0.011688441,0.0008804798,0.7045537,0.09713456
2.1189451e-05,0.008870423,0.009219587,0.15776205,0.02026248,0.9994358,0.009782523,0.006798893,0.0044047236,0.0059259534
8.520484e-05,8.380413e-05,0.00097212195,0.00011265278,6.2584877e-07,0.0024006963,0.012184948,0.004528314,0.003017515,0.95924735
0.29441553,0.00021895766,0.0058084726,0.518233,6.610155e-05,0.01977107,0.016455352,0.00043436885,0.22219929,0.0052067637
0.0020225942,2.1070242e-05,0.00019875169,0.00022166967,1.9073486e-05,0.0012485385,0.029042125,0.00097572803,0.99768794,0.00020363927
0.0017760098,6.943941e-06,0.00016784668,0.00018304586,7.987022e-06,0.00070264935,0.0072826445,0.00015231967,0.9976781,0.0006071627
1.5825033e-05,0.0010994673,0.0009122789,0.99997854,0.00023770332,0.019436926,0.026845664,6.7055225e-06,0.010899216,3.373623e-05
1.4364719e-05,3.951788e-05,0.00630787,0.00013256073,8.404255e-06,0.99939555,0.0052895546,8.46684e-05,0.29571554,0.0014775395
0.000777483,0.00038465858,0.99533963,0.006942481,0.00014999509,0.0036680102,0.0059696734,0.0010609925,0.17902836,0.0044183135
0.9355495,2.2351742e-06,0.00022166967,0.00021627545,9.119511e-06,0.0025915802,0.0054171383,0.01968041,0.0034106076,0.065305114
5.5998564e-05,0.05656582,0.00012773275,0.00012621284,0.00064343214,0.013244659,0.14952135,0.0074341595,0.0037468076,0.065837175
0.99106437,8.940697e-08,0.00026199222,1.0162592e-05,1.9967556e-06,0.0033398569,0.0034518242,0.0002296567,0.0053168237,0.0015800595
0.00043576956,1.5318394e-05,0.0001181066,0.99998116,9.4652176e-05,0.010737449,0.006816715,4.053116e-06,0.0118380785,1.4901161e-06
0.00013571978,2.4974346e-05,0.003509581,4.914403e-05,4.798174e-06,0.004555881,0.8360908,0.00022748113,0.0025103986,0.08048278
0.0011592805,5.066395e-07,2.1576881e-05,5.298853e-05,4.172325e-07,0.00057572126,0.0058324337,0.00036105514,0.99843824,6.7681074e-05
0.06713331,0.00042402744,0.0006417334,0.000564456,4.4614077e-05,0.0036678016,0.01668045,0.0008676648,0.9323058,0.057178974
0.00016528368,0.63731927,0.21504658,0.8739697,0.01438272,0.011211157,0.06218967,9.614229e-05,0.9193693,0.0043727756
0.97588587,2.682209e-07,0.00017172098,4.553795e-05,2.0861626e-07,0.0011452734,0.0029462576,0.0026824772,0.001732707,0.014995605
0.9296589,1.4901161e-07,0.0039488375,1.2844801e-05,3.874302e-07,0.0020706058,0.012566,0.0011323392,0.020874709,0.0030795634
0.9874679,3.5762787e-07,0.00018689036,1.335144e-05,1.2814999e-06,0.003089279,0.0051609576,0.0007593632,0.0054209232,0.004981011
0.013492852,0.00043341517,0.00056028366,0.00026226044,0.00033956766,0.004118502,0.021720707,0.0017048717,0.95014477,0.03689736
0.33102193,0.00011473894,0.0007676184,0.00032564998,4.172325e-05,0.008175492,0.0128264725,0.00024563074,0.7485353,0.010031909
0.0005989671,1.8775463e-06,0.0005788803,9.9271536e-05,4.0739775e-05,0.0004799366,0.002278477,0.99942565,0.0019194186,0.0061706007
0.99390036,6.556511e-07,0.00030338764,3.2901764e-05,7.1525574e-07,0.0042155683,0.0066266656,0.00020483136,0.001434505,0.007894754
1.7881393e-05,0.039691806,0.575208,0.109166294,0.0017703474,0.9959041,0.0024634302,0.0009561777,0.2114377,0.002462417
0.38840294,1.2546778e-05,0.00044816732,0.00039729476,1.1533499e-05,0.0070367754,0.010863215,0.013078481,0.7392098,0.010942578
0.46549916,5.248189e-05,0.01336655,0.00027537346,0.00038456917,0.00220114,0.013239354,0.019153059,0.016422987,0.048123986
0.011557639,0.00015839934,0.0026726723,0.00056150556,0.0007444918,0.0019341707,0.012759477,0.00028252602,0.97457993,0.009488106
0.0019133091,5.5462122e-05,0.00018146634,0.00065234303,8.195639e-06,0.0021541417,0.006986618,0.0009831786,0.99785006,0.00071951747
0.11148074,0.00052171946,0.0025072396,0.0042333007,0.004408866,0.044495404,0.21791759,0.0008972585,0.00091072917,0.06701857
0.012041181,4.2140484e-05,0.00021776557,0.0003399253,6.5267086e-06,0.0025302768,0.012375206,0.006259978,0.99018246,0.0056686997
0.96424925,5.066395e-06,0.0011149645,0.00019946694,4.7892332e-05,0.0027159452,0.011410862,0.00032499433,0.002798885,0.037608176
0.9829893,4.7683716e-07,0.00049880147,0.00019443035,1.3977289e-05,0.0018476546,0.005985409,0.0029895604,0.0010708272,0.028681785
0.0023344457,5.9604645e-08,5.7905912e-05,0.000103116035,6.017089e-05,0.0005360842,0.0024686158,0.99928355,0.0003350973,0.0028524399
0.007979602,0.0010306835,0.00017219782,0.0033411682,0.00012293458,0.9955858,0.03273639,0.0006335676,0.00013172626,0.008484215
0.0035375655,3.8832426e-05,0.00010931492,0.00010460615,1.1324883e-06,0.0055365264,0.07690564,0.0011939108,0.981749,0.0030335486
0.011746645,0.00085124373,0.0075819492,0.00061643124,0.00011202693,0.0033921003,0.01341778,0.0014156401,0.9887843,0.0074796677
0.00020468235,0.0028851628,0.8870742,0.001796931,0.0003389418,0.007850796,0.054884553,0.0007485151,0.9692609,0.0008482337
0.00022363663,0.02320847,0.00042372942,0.9855445,0.00018066168,0.01338619,0.09391627,5.90086e-06,0.5174841,0.016797245
0.0033420026,7.033348e-06,0.00056269765,0.0002540648,4.7683716e-07,2.9176474e-05,0.0010495782,0.0005838573,3.9607286e-05,0.99371386
0.11349198,0.0004374683,0.016534865,0.00059735775,0.00014469028,0.002247423,0.018641412,0.0002758205,0.40467355,0.1904816
0.021330684,7.739663e-05,0.0005323291,0.00037431717,2.0831823e-05,0.013197571,0.038016886,0.009732425,0.25393933,0.17316377
0.9581444,4.1127205e-06,0.0018406808,0.000120162964,4.6908855e-05,0.0025542676,0.009078205,0.015075356,0.00039419532,0.044757962
0.9925616,2.9802322e-08,0.0001976788,2.9861927e-05,4.9471855e-06,0.0016977489,0.0033279657,0.0013311803,0.0026428103,0.0028997362
8.8870525e-05,0.93785536,0.001439184,0.0012508929,0.00013971329,0.015016675,0.0029916465,0.0001411736,0.7298964,0.008040875
0.0034829378,8.761883e-05,0.0015636384,0.00013878942,5.1259995e-06,0.0034454465,0.015144914,0.00040236115,0.027477622,0.92768866
4.285574e-05,4.3809414e-05,0.9942633,0.0014390647,0.16347551,0.0015174747,0.01071322,0.0023207664,0.9804261,3.6418438e-05
0.65236247,0.0001193583,0.52095926,0.00024145842,6.386638e-05,0.005885303,0.0058867633,0.007419437,0.01535207,0.0037878752
0.00091686845,0.119211435,0.05912757,0.94879913,0.0008213818,0.010660946,0.027332246,6.0647726e-05,0.7939868,0.030954748
3.7789345e-05,0.99303246,0.0017943382,0.016202033,5.7131052e-05,0.05674845,0.0016605556,3.245473e-05,0.11850238,0.014648408
0.0037766695,9.11057e-05,0.00021088123,0.0002991557,2.0623207e-05,0.0017521381,0.017846674,0.00070491433,0.99569523,0.0017875433
0.0001450181,0.00014579296,0.9976815,0.017047346,4.4703484e-05,0.0074185133,0.009300113,0.01083827,0.6244012,0.0007298291
0.47181392,1.9907951e-05,0.00013458729,0.0006298721,6.3180923e-06,0.0052452683,0.0052248836,0.032663196,0.7501358,0.035751253
0.1719599,2.3841858e-06,0.000526309,7.164478e-05,5.662441e-07,0.0007342696,0.0025611818,0.8112944,0.0005452633,0.070663095
0.95190835,0.0,0.00016501546,1.7881393e-07,0.0,1.32620335e-05,0.00016748905,0.1562736,1.9967556e-06,0.00030848384
3.5762787e-07,4.917383e-06,0.00014001131,3.966689e-05,7.4505806e-07,0.99999505,0.00045108795,4.7057867e-05,0.9409529,9.089708e-06
0.11820564,3.2782555e-07,1.5199184e-05,3.734231e-05,5.364418e-07,0.0014903843,0.007897228,0.002990812,0.8205081,0.0034924448
0.008146822,5.4240227e-06,0.00038003922,0.00013649464,1.2695789e-05,0.0016116798,0.009755641,0.032169133,0.9702245,0.010754138
0.2300745,0.00015100837,0.0013155639,0.00018325448,2.1487474e-05,0.009850293,0.015312493,0.0012927055,0.8667923,0.034995645
0.0,0.00012654066,0.0018222034,6.970763e-05,5.0365925e-06,0.99999976,0.00015199184,3.695488e-06,0.8381578,5.2452087e-06
1.5616417e-05,0.075659275,0.008261323,0.10050079,0.0013493598,0.20984337,0.67359096,0.0002066493,0.0036201477,0.17541221
0.64038175,6.198883e-06,0.00024682283,0.0004799962,7.6293945e-06,0.0014280081,0.006180942,0.054132164,0.0007188916,0.26697308
0.00028684735,6.28829e-06,0.0015027821,0.0007006526,1.0430813e-05,0.0034439862,0.0036994219,0.9826398,0.00052928925,0.01633197
1.2874603e-05,2.026558e-06,0.0053661764,0.00032749772,0.99746,0.0005785227,0.0043910146,0.007845908,0.016221136,0.003174603
2.682209e-07,0.39454177,0.0021326244,0.00010204315,0.0008532405,0.9604406,0.02738455,0.0050833225,0.09723884,0.00019726157
0.9916171,1.0728836e-06,0.00071522593,2.56598e-05,1.937151e-06,0.010886192,0.006183535,0.00052267313,0.004717827,0.004450649
0.00034469366,1.0997057e-05,0.00090509653,0.9998338,0.00018006563,0.010184467,0.0059549212,6.41644e-05,0.10381827,1.7285347e-06
0.004219234,0.001481235,0.08335388,0.0067157745,0.012200326,0.0064089894,0.016376793,0.0020536184,0.9528669,0.006404221
0.018730402,0.0021292567,0.66473126,0.0023704767,0.016280204,0.009975553,0.020844579,0.04008189,0.5697317,0.00942567
0.0047658384,0.00027695298,0.0001463294,0.00039985776,1.1265278e-05,0.013204515,0.9644904,0.0053982735,0.019553155,0.0066194534
0.40349916,8.043647e-05,0.0010651648,0.00021183491,4.7385693e-06,0.008969218,0.041832745,0.00028529763,0.5121605,0.020302713
1.5497208e-06,0.0012218952,0.0008548498,0.00092953444,1.1146069e-05,0.89121455,0.93104947,8.657575e-05,0.0072469413,0.021183401
2.7924776e-05,2.4497509e-05,0.00014153123,0.0004464984,4.5865774e-05,0.9999848,0.27797362,6.7442656e-05,0.0090973675,0.00010660291
0.98833805,1.758337e-06,0.00024816394,0.00023970008,1.385808e-05,0.0076809227,0.008931577,0.0005951524,0.0012063384,0.024589509
0.028841048,0.002718985,0.0045648217,0.0023028255,0.00042143464,0.0031599104,0.024260968,0.000418514,0.08823308,0.8288336
0.001545608,0.0004298091,0.00100106,0.0036503673,0.00016361475,0.99780476,0.018312365,8.8721514e-05,0.044959664,0.04323381
0.9872029,2.682209e-07,0.00041401386,2.1487474e-05,2.9802322e-07,0.005924821,0.005413711,0.0044650733,0.0012967288,0.008548915
3.5762787e-07,3.9339066e-06,0.9927145,0.99970555,0.00020363927,0.005541086,0.008389562,1.296401e-05,0.4156426,7.1525574e-07
0.19715115,1.6748905e-05,0.00028160214,0.00020119548,2.3573637e-05,0.007566422,0.009740055,0.0012383759,0.9158272,0.0018493533
0.20549715,6.2584877e-07,7.483363e-05,0.00011378527,1.9967556e-06,0.00083625317,0.0034762025,0.95557344,0.00030961633,0.0033687353
0.004181236,2.115965e-06,0.0008776188,0.00013884902,4.014373e-05,0.0008789003,0.0033034086,0.5686155,0.00026023388,0.54519236
0.17022455,6.559491e-05,0.0018280745,0.00017884374,4.0262938e-05,0.006566614,0.016330183,0.0024169385,0.67562044,0.019468635
0.81021225,8.0794096e-05,0.0023384988,0.000289917,9.727478e-05,0.0056137145,0.020063668,0.011440635,0.003166169,0.13754031
0.62439334,0.00014871359,0.0016698241,0.0004040599,0.000374794,0.014696181,0.019497097,0.0012853742,0.012957066,0.24337503
0.023283333,6.6906214e-05,0.04755178,0.009959877,0.94164765,0.0017646849,0.0113247335,0.00036787987,0.037694633,0.07480529
0.97120905,4.2021275e-06,0.0023083985,8.761883e-05,4.3213367e-06,0.0016965866,0.0054606795,0.002940029,0.00013035536,0.04431334
0.0015949905,0.116025925,0.017695814,0.001856178,0.00011271238,0.028221816,0.48651105,4.2527914e-05,0.84528065,0.028659135
0.9485113,1.7285347e-06,0.00015175343,4.181266e-05,6.854534e-07,0.004943967,0.0059937537,0.00080791116,0.11735311,0.003490597
0.014901549,0.00047886372,0.00040736794,0.00038921833,2.0235777e-05,0.0015246868,0.023377717,0.00019389391,0.96921813,0.0896211
8.285046e-06,0.8748203,0.0028653145,0.99432063,0.001009345,0.025751114,0.02867052,6.2584877e-07,0.81431895,0.0007802546
0.98907363,3.3974648e-06,0.00093075633,4.467368e-05,4.887581e-06,0.0065376163,0.00846523,0.0034750104,0.0016047657,0.01072669
0.70399666,2.8908253e-06,0.0017288923,2.4020672e-05,3.2782555e-07,0.00021672249,0.0024672747,0.0036967993,7.3611736e-06,0.43689126
0.9872999,0.0,4.7534704e-05,6.854534e-07,1.7881393e-07,0.00057548285,0.000549078,0.017632335,0.002622068,0.00015437603
0.7959251,2.5004148e-05,0.000498265,0.00018975139,3.2812357e-05,0.004373133,0.012162864,0.0010216236,0.09985027,0.08984068
0.21921027,3.477931e-05,0.0002577901,0.0009892881,6.4969063e-06,0.011498123,0.027424365,0.0063332915,0.3424331,0.37475434
0.87287116,2.3722649e-05,0.0017880201,0.00013783574,1.6987324e-06,0.011020452,0.02298969,0.007134229,0.0031158328,0.12050596
0.9476979,7.1525574e-07,0.0011093318,5.3942204e-05,2.771616e-06,0.0038232207,0.005399674,0.0011677146,0.0023038685,0.024514765
0.006341636,0.001875937,0.00092226267,0.0021111667,5.170703e-05,0.00048696995,0.01913488,1.0937452e-05,0.084673524,0.9245296
0.006341636,0.0018763244,0.0009224713,0.0021112263,5.1766634e-05,0.00048705935,0.019136906,1.0967255e-05,0.08466387,0.92452574
0.0,0.9999231,0.0003426373,0.4747478,0.00094506145,0.004831761,0.00018453598,7.4505806e-07,0.0026786923,0.0004528165
4.2051077e-05,0.9900763,0.06898743,0.0063027143,0.0005889237,0.035048723,0.006334871,0.0005386174,0.08964166,0.011340857
0.0004695952,0.0002501011,0.07580513,0.0021196604,0.9844901,0.007559687,0.026973128,0.012821138,0.36975902,0.0014511943
0.99370956,2.9802322e-08,0.00027886033,1.1056662e-05,8.34465e-07,0.0007598102,0.00097331405,0.0032346547,0.000598371,0.0020006895
0.0010808408,0.00023528934,0.0002052486,0.00042712688,4.0769577e-05,0.0043734014,0.520707,0.00018811226,0.9528396,0.0032320023
0.9871577,1.7881393e-07,0.00023654103,4.529953e-06,4.7683716e-07,0.0027796626,0.0033144355,0.0016916096,0.0013202727,0.0040635467
0.0007570088,3.3169985e-05,6.890297e-05,0.99988985,0.00016909838,0.0047984123,0.0025080144,2.8908253e-06,0.00034672022,0.00041511655
0.00013715029,6.7681074e-05,0.9106797,0.003209263,0.7550871,0.0011937618,0.003737241,0.001550585,0.95879126,0.0003387332
3.5762787e-05,2.8967857e-05,0.50901216,0.00021374226,9.9629164e-05,0.00054746866,0.005056381,0.0032093227,0.04543957,0.23393413
0.006341636,0.0018763244,0.0009224713,0.0021112263,5.1766634e-05,0.00048705935,0.019136906,1.0967255e-05,0.08466387,0.92452574
5.2899122e-05,9.23872e-07,6.747246e-05,0.9999908,1.0341406e-05,0.0012159944,0.0011234581,8.7320805e-06,2.9861927e-05,2.5629997e-06
0.98524916,1.4901161e-07,0.00031286478,6.502867e-05,1.2129545e-05,0.0018067956,0.0030043125,0.016497582,0.00096586347,0.006808281
0.07836479,9.536743e-07,9.414554e-05,0.00011795759,3.758073e-05,0.0012848973,0.0031956136,0.00088968873,0.96755266,0.00074747205
0.9906124,0.0,0.0010157824,3.874302e-07,0.0,0.00031235814,0.0009291768,0.0014584363,8.1032515e-05,0.00044557452
0.99199,4.7683716e-07,0.0005171895,4.6998262e-05,1.5944242e-05,0.004937291,0.006992042,0.0005632639,0.0012094676,0.004883915
5.00679e-06,6.2674284e-05,5.9992075e-05,0.00010314584,1.7881393e-07,0.027023464,0.9999541,1.564622e-05,0.0002541542,4.2557716e-05
0.049342155,0.00016897917,0.00027135015,0.011342257,0.0024228096,0.0033897758,0.018878073,0.0022648275,0.32929745,0.22194955
0.0031784475,0.00039193034,0.00072824955,0.00025197864,9.3609095e-05,0.015744954,0.12664711,0.0067445636,0.98681736,0.00069612265
0.45526326,3.2782555e-07,0.00032812357,9.9390745e-05,1.6570091e-05,0.003310889,0.002447158,0.8408044,0.00046303868,0.0075734854
3.963709e-06,0.07078621,0.031306237,0.99992955,6.496906e-05,0.029155642,0.07060671,1.4305115e-06,0.3974843,0.00014030933
0.0,0.037938833,0.0017466843,0.999905,3.6597252e-05,0.035752088,0.7022275,8.940697e-08,0.98336667,3.5762787e-07
6.3180923e-06,0.010984272,0.9779613,0.9979931,0.00060275197,0.008776873,0.023833662,6.097555e-05,0.008428156,0.0002578497
0.80253065,3.132224e-05,0.012481153,0.0001410842,2.1219254e-05,0.005686909,0.010607779,0.0150462985,0.11448088,0.02073136
0.07964489,2.1189451e-05,0.00049576163,0.00014463067,1.1086464e-05,0.0035082698,0.0065806806,0.00074511766,0.967461,0.0060946345
0.020673335,0.0053666234,0.0007387996,0.0006635785,2.9444695e-05,0.009933144,0.06254509,0.0003322363,0.94255126,0.05772969
0.009440452,5.6624413e-06,0.00010666251,0.00018894672,4.440546e-06,0.0008060336,0.005052209,0.0006092489,0.99364567,0.0012641251
0.97420156,2.115965e-06,0.00088989735,0.00013563037,4.5210123e-05,0.0038586855,0.0102160275,0.0039695203,0.0019043088,0.029560745
1.1920929e-07,0.038734972,0.0015551746,0.9998356,7.4505806e-06,0.01852125,0.26858634,2.9802322e-08,0.9836268,3.1590462e-06
0.0,0.036981314,0.64790547,0.0030754805,0.001192838,0.019839913,0.98496354,2.69413e-05,0.9670861,3.1590462e-06
0.44327876,1.9073486e-06,1.552701e-05,4.8965216e-05,1.0728836e-06,0.0058080256,0.007561326,0.003435284,0.7120849,0.003925681
0.96412694,1.1026859e-06,0.0007081032,3.299117e-05,9.298325e-06,0.008230448,0.008764118,0.024938673,0.00020813942,0.007919908
0.0027754307,0.0011057258,0.0014393628,0.9986298,0.0007985234,0.012381166,0.020506978,1.8268824e-05,0.21151647,0.00069984794
8.457899e-05,0.02013117,0.14056718,0.9996793,0.032503814,0.006231576,0.006180644,6.943941e-06,0.034771353,0.00046032667
0.0004890263,0.9904847,0.00028795004,0.0003760457,3.0428171e-05,0.010919452,0.004180759,0.00085905194,0.0019578636,0.010494411
0.012001127,9.119511e-06,0.0009888709,6.67572e-05,4.3213367e-06,0.0020386279,0.009224653,0.0008314252,0.9784564,0.00023457408
0.00053679943,0.0446119,0.0021226704,0.0048164725,0.00010371208,0.030610383,0.71043324,0.0001410842,0.44471073,0.029598325
0.0013191998,0.9558395,0.0070598423,0.0017876029,8.434057e-06,0.07214114,0.046893448,0.00014254451,0.03187242,0.032733113
0.99141276,2.9802322e-08,0.00020974874,3.3080578e-06,7.1525574e-07,0.002149433,0.0026232004,0.00032433867,0.012898892,0.0004797876
0.006341636,0.0018763244,0.0009224713,0.0021112263,5.1766634e-05,0.00048705935,0.019136906,1.0967255e-05,0.08466387,0.92452574
0.17162985,6.258488e-05,0.0011728108,0.0004287958,0.0,0.0058632493,0.009896874,0.0036160052,0.02704829,0.86922204
0.008394927,0.00019288063,0.004415065,0.0008645952,1.0967255e-05,0.008289784,0.030338258,0.002735883,0.96058095,0.0018925369
0.0011053085,0.00010278821,0.007070869,0.00051665306,0.001709342,0.001348108,0.018298805,0.0005930662,0.009471536,0.8961998
0.99094164,8.940697e-08,0.0006594062,1.7881393e-06,4.7683716e-07,0.0016908646,0.0017415881,0.0007433593,0.0006955266,0.001590848
0.9740597,9.536743e-07,0.0020051897,5.4717064e-05,1.3589859e-05,0.001395613,0.006070763,0.007216394,0.0003594458,0.008698821
0.0044313073,8.106232e-05,0.00013142824,0.00042647123,8.85129e-06,0.0021829903,0.014998138,0.0017156601,0.9941007,0.0057784915
0.000808239,0.8068023,0.014982998,0.00607726,5.7697296e-05,0.021239609,0.012440026,0.00082692504,0.028220773,0.2819999
0.03371963,4.029274e-05,0.00058835745,0.00062420964,6.854534e-07,0.0021538734,0.014699966,0.0015895963,0.8010607,0.09186271
1.1920929e-07,0.18689013,0.008479595,0.03795454,0.00018030405,0.999793,0.034128428,6.9886446e-05,0.6447758,0.00011843443
0.00071808696,0.0019257963,0.0025096834,0.00029057264,8.910894e-06,0.82223785,0.023503602,0.00020864606,0.23317227,0.11954063
0.024100184,2.8342009e-05,0.00010639429,0.00024995208,8.285046e-06,0.0033951998,0.009010613,0.0026503205,0.98693264,0.0027932525
0.7349615,0.00010433793,0.040755987,6.6667795e-05,2.7418137e-06,0.0025737584,0.0058695674,0.0021837652,0.0011035204,0.21516761
0.17923275,9.864569e-06,0.97392666,0.00041362643,0.00015190244,0.0016593635,0.0026144683,0.03491792,0.0003861189,0.0016604364
0.9582921,2.0861626e-06,0.00044700503,6.946921e-05,8.285046e-06,0.008125007,0.00985229,0.00047683716,0.03942859,0.003272742
0.21178651,9.953976e-06,1.7821789e-05,0.0021795332,1.66893e-06,0.007239431,0.006326109,0.19398409,0.5969721,0.016104072
6.4492226e-05,0.6861805,0.03794664,0.022826314,0.009538621,0.02426374,0.06707436,6.0468912e-05,0.60150814,0.029303372
0.00014525652,5.066395e-07,2.554059e-05,0.99999416,1.0997057e-05,0.0040616393,0.002640903,4.2021275e-06,8.314848e-06,6.377697e-06
0.00072577596,0.017832398,0.026019126,0.2969576,0.008387715,0.008892417,0.030881524,0.000354141,0.9756584,0.0043832064
0.9973778,1.4901161e-07,0.00092995167,9.23872e-06,4.7683716e-07,0.0012365282,0.002144605,0.0002167821,9.9778175e-05,0.002043426
0.034344465,0.0006791949,0.0056370795,0.00027638674,9.739399e-05,0.95718586,0.09486762,0.00075909495,0.037189722,0.009221196
0.9811654,4.7683716e-07,0.00026974082,5.4955482e-05,1.1920929e-06,0.0018346608,0.006262839,0.01972127,0.0008444786,0.011152744
1.04010105e-05,0.00034546852,0.0005078316,0.0006804168,2.977252e-05,0.98798484,0.059311062,0.00013947487,0.9902886,1.6242266e-05
0.0004143119,0.0006094575,0.0004912615,0.9998505,0.00021210313,0.025951833,0.012018263,4.1753054e-05,0.018837363,0.00013309717
1.3202429e-05,0.7123745,0.0623672,0.9975549,0.0045155883,0.021649212,0.037697315,2.7239323e-05,0.878212,0.00046283007
0.00071164966,0.00030070543,0.0014834702,0.00071391463,2.5629997e-05,0.9999939,0.013116151,0.00012814999,0.0045883358,0.00094264746
0.02044174,1.5497208e-06,0.00043195486,0.00018534064,1.5169382e-05,0.0035924017,0.005189985,0.0055315495,0.97389674,6.446242e-05
0.037153304,4.172325e-07,1.3291836e-05,8.416176e-05,6.2584877e-07,0.00077086687,0.0068365335,0.003486842,0.9633001,0.0011450648
0.02120474,0.00015768409,0.016907454,0.0005916655,0.004395187,0.010987312,0.026257217,0.005338609,0.8723,0.011812478
0.006261885,0.00040644407,0.20930403,0.0013101697,1.9907951e-05,0.0014179647,0.0049344003,0.0007548332,0.9733716,0.004770905
0.9646878,1.9073486e-06,0.0002706945,4.6104193e-05,1.4901161e-07,0.00080138445,0.0034961402,0.00087291,0.0045200586,0.004788786
0.9698601,4.7385693e-06,0.000665009,0.00010791421,6.2286854e-06,0.018666297,0.01628086,0.0060524642,0.0018066466,0.020723581
0.023798883,0.0004785061,5.9068203e-05,0.0003336072,4.3958426e-05,0.016878158,0.26152068,0.2125678,0.03297332,0.117370754
0.990402,8.6426735e-07,0.00032243133,0.00026714802,3.1590462e-06,0.0024594665,0.0072825253,0.0013500154,0.0008779764,0.014313251
0.005020678,0.0027119517,0.19465464,0.0010582507,0.0005532503,0.01189217,0.017308474,0.0028449297,0.98561084,0.0021901429
6.827712e-05,0.9839825,0.02802807,0.0392417,0.0023433864,0.018113732,0.040242285,5.6803226e-05,0.87002707,0.012881577
2.9802322e-08,0.00010070205,0.9667783,0.9985321,0.92664474,0.0017510355,0.009024441,6.976724e-05,0.0030663311,4.762411e-05
3.695488e-06,0.99712247,0.010671496,0.00045356154,0.0004554093,0.02186349,0.0008497238,8.9138746e-05,0.012071192,0.006712377
0.94776917,4.4703484e-07,0.00022178888,2.2470951e-05,6.854534e-07,0.005921632,0.005610645,0.0037705004,0.005887747,0.011645794
0.017023236,0.07236248,0.0003786683,0.0025647879,8.672476e-06,0.0067647696,0.009395391,0.000110685825,0.91898525,0.12112552
0.08271161,7.778406e-06,0.00025072694,9.790063e-05,3.7252903e-06,0.0024959445,0.022435725,7.8856945e-05,0.92413163,0.0061959624
