0,1,2,3,4,5,6,7,8,9
0.9829138,5.9604645e-08,4.2378902e-05,8.973479e-05,1.2218952e-06,0.0033111274,0.0045332313,0.00011956692,0.014424562,0.0071855187
0.82952356,0.0,4.735589e-05,9.5546246e-05,0.0,0.0014202595,0.0006583035,0.16963229,2.002716e-05,0.025949627
0.00023770332,8.940697e-08,0.005870074,0.00039559603,0.5564739,0.99994457,0.0032134652,2.6911497e-05,5.0216913e-05,4.4107437e-06
0.0,0.00033044815,5.51939e-05,0.9998305,5.9604645e-08,0.0062548816,0.9997057,2.3841858e-07,7.033348e-06,1.7881393e-07
0.00037428737,1.1026859e-06,9.5427036e-05,0.9997827,4.9471855e-06,0.0070435107,0.0026903749,1.013279e-06,0.00064855814,4.005432e-05
0.99639475,0.0,3.0994415e-06,1.3321638e-05,5.9604645e-08,0.0008646548,0.00040525198,0.005352974,3.993511e-06,1.8656254e-05
0.010175645,9.536743e-07,1.758337e-06,3.2246113e-05,1.1920929e-06,0.003143996,0.005987823,3.7282705e-05,0.9919666,0.004682094
3.2484531e-06,1.1920929e-07,0.00052013993,0.99996495,0.9955778,0.007155597,0.00470832,1.3113022e-06,0.0028616488,4.172325e-06
5.3942204e-06,1.7732382e-05,0.0032325387,0.706926,1.168251e-05,0.00017625093,0.004431665,1.4334917e-05,0.99990034,2.9802322e-07
3.0696392e-06,0.00021234155,7.212162e-05,4.389882e-05,2.9802322e-08,0.014413118,0.9999677,0.0001295507,0.0014235377,4.2915344e-05
0.00090017915,4.440546e-06,0.8039197,0.00037044287,0.000119805336,0.0043266714,0.018666953,1.1771917e-05,0.99072486,5.492568e-05
0.0011395812,0.0,1.475215e-05,1.1354685e-05,4.172325e-07,0.00017035007,0.00077557564,9.712577e-05,0.9991844,1.3142824e-05
5.8233738e-05,0.8191228,0.0083735585,0.9960488,7.599592e-05,0.011690348,0.008920401,8.940697e-08,0.6750938,0.0024360716
0.0002849996,0.9894119,0.0030281246,0.005297929,0.00012385845,0.010505468,0.004092723,0.00013330579,0.067456126,0.020979047
0.056319922,0.0,1.4066696e-05,2.3752451e-05,4.7683716e-07,0.00056543946,0.0012569427,0.00016409159,0.968987,2.503395e-05
0.0063670576,0.22848421,0.0010023117,0.0009638667,1.1175871e-05,0.006326169,0.037157416,9.161234e-05,0.5672206,0.047993094
0.00027662516,1.4483929e-05,0.0004786253,0.9995018,0.00077825785,0.01591131,0.0066823065,4.5597553e-06,0.11403841,7.4207783e-06
0.9970946,0.0,0.00016191602,6.851554e-05,1.7881393e-07,0.0049099326,0.001765728,3.606081e-05,0.00025334954,0.0018449426
0.0,4.3809414e-06,0.98242486,3.5762787e-06,0.023670256,0.013649225,0.9795119,4.529953e-06,0.9031442,0.0
1.3411045e-05,0.00048306584,6.651878e-05,0.00022608042,7.033348e-06,0.0019445121,0.9530541,0.0018947124,0.9931717,0.00011339784
0.99911034,0.0,1.8566847e-05,1.1593103e-05,2.9802322e-08,0.0049922764,0.0012432635,0.0002028346,0.00010380149,0.00046765804
0.033732623,9.089708e-06,0.9347719,0.2986499,3.749132e-05,0.0067480206,0.003830701,0.00042378902,5.710125e-05,0.0027050972
0.99836445,0.0,1.3917685e-05,2.5212765e-05,8.940697e-08,0.0028348267,0.003497094,0.0001372695,0.0002680719,0.0008559227
0.0015505552,0.00028792024,0.004278481,6.41644e-05,2.0861626e-07,0.0033447742,0.0078074336,1.3798475e-05,0.9944037,0.007175803
0.007299453,5.632639e-06,6.696582e-05,7.6562166e-05,3.3080578e-06,0.0025953352,0.005287707,9.018183e-05,0.9958705,0.001278758
5.9604645e-08,4.7683716e-05,0.052093536,9.23872e-07,0.0003964603,0.99073553,0.005218357,1.2457371e-05,0.05463311,7.56979e-05
1.3709068e-05,0.003330022,0.00035372376,6.854534e-07,0.0,0.011149704,0.90887344,0.031593263,5.1766634e-05,0.00910008
0.8803495,0.0,1.0967255e-05,4.5001507e-06,0.0,0.001737386,0.0012866557,0.5762583,2.5242567e-05,0.00025707483
0.03171265,5.9604645e-08,0.00018513203,4.3153763e-05,6.3180923e-06,0.003386706,0.0019539893,0.99245006,0.040572166,0.0032507181
0.0005055964,0.9221065,0.0015045106,0.06879753,2.0951033e-05,0.007685691,0.033744156,5.6624413e-06,0.98316777,0.01607728
0.00047677755,0.0003566742,3.08156e-05,3.3527613e-05,1.013279e-06,0.030380487,0.9977318,9.736419e-05,0.009663194,0.0017023087
6.854534e-07,0.0016171038,8.7052584e-05,6.970763e-05,1.4901161e-06,0.052052796,0.99969554,8.9377165e-05,0.1570085,5.364418e-06
0.19358933,3.5464764e-06,0.00020775199,0.00012543797,2.9802322e-07,0.028083771,0.91013384,0.00016829371,0.00039821863,0.0008569956
3.0606985e-05,1.4901161e-06,0.00056630373,0.99989945,0.0051085055,0.0046046674,0.0030622184,0.00012463331,6.4492226e-05,0.00020971894
0.9288657,0.0,7.2181225e-05,2.0325184e-05,5.066395e-07,0.0023955703,0.0026252568,4.211068e-05,0.33647454,0.0004222989
0.9990305,0.0,8.067489e-05,1.1265278e-05,5.9604645e-08,0.0027430952,0.00028574467,5.990267e-06,0.0001065135,3.0636787e-05
0.7496231,8.940697e-07,0.00013661385,1.1593103e-05,2.3841858e-07,0.0074725747,0.0059508085,0.00010877848,0.2480357,0.08876991
0.99387246,5.9604645e-08,2.4974346e-05,3.6656857e-05,1.7881393e-07,0.0065244734,0.004970789,0.00047329068,0.00040212274,0.01641056
0.994336,5.9604645e-08,5.8740377e-05,5.4448843e-05,1.8775463e-06,0.006588012,0.0038784444,0.00022870302,0.0006108284,0.008243084
0.0002681613,8.6426735e-07,1.3649464e-05,7.137656e-05,1.4811754e-05,0.0003349185,0.0026738048,0.00014567375,0.99986255,3.20971e-05
6.2584877e-07,1.7881393e-07,0.999676,0.00047263503,4.3839216e-05,0.0003117621,0.004608363,0.00025317073,0.8989446,0.00014254451
0.88145226,1.3381243e-05,0.0007626116,0.00015330315,5.185604e-06,0.0047439933,0.008014262,3.3080578e-05,0.14308146,0.026716262
4.172325e-07,2.413988e-06,0.01297766,2.8073788e-05,0.0005670786,0.999998,0.040979058,6.2286854e-06,0.14435583,5.9604645e-08
3.0457973e-05,0.9961573,0.00160411,0.011363745,0.00023284554,0.00311324,0.0028723776,3.6805868e-05,0.9978436,8.559227e-05
0.0011176765,5.7816505e-06,5.9247017e-05,0.00010076165,1.9073486e-06,0.0011154115,0.012522131,0.00015598536,0.9985473,0.00070261955
0.051516205,2.682209e-07,4.1216612e-05,3.9219856e-05,2.3841858e-07,0.0020412803,0.0019772947,0.97900045,0.012106687,0.011152267
0.24146885,5.2452087e-06,0.0020219982,4.1872263e-05,1.0728836e-06,0.0014078915,0.006777227,9.3102455e-05,0.87122065,0.00419876
0.082090795,0.00013384223,0.0016210675,0.0015484393,8.34465e-06,0.0022780597,0.004042268,0.00028914213,0.32806045,0.20090187
4.4703484e-06,0.9990988,0.0009768009,0.010074526,0.0026273727,0.00474903,0.0013192594,6.5237284e-05,0.24897906,0.0003427565
0.99910426,0.0,4.8041344e-05,8.863211e-05,0.0,0.0012635887,0.0010996163,3.0100346e-06,0.00022095442,2.1129847e-05
0.00019824505,2.5629997e-06,0.00043821335,1.257658e-05,1.2814999e-06,0.3035105,0.051120162,0.0013079345,0.0010020137,0.39238545
9.596348e-05,0.9939321,0.0012589991,0.0003002584,5.9872866e-05,0.007894903,0.0010429919,9.012222e-05,0.008220553,0.008715242
2.4437904e-06,0.00015696883,0.00017032027,6.6936016e-05,1.0788441e-05,0.9999998,0.0099390745,1.4156103e-05,0.8250432,9.655952e-06
0.5346681,3.3676624e-06,1.874566e-05,0.0002914071,1.7881393e-07,0.01604721,0.005844742,0.0028252602,0.6986597,0.0071507096
0.9497869,3.0398369e-06,0.00035479665,4.8339367e-05,7.748604e-07,0.008703262,0.005287349,0.00022622943,0.021924347,0.031126231
8.407235e-05,0.95638466,0.0036017,0.015174657,0.00040480494,0.022995561,0.06900233,6.9737434e-06,0.13263652,0.03426537
0.82435894,3.33786e-05,0.0004015863,3.7163496e-05,5.9604645e-08,0.009256452,0.0025898814,5.4836273e-05,0.27813166,0.040397257
8.940697e-06,0.9975554,0.00036853552,0.00073572993,4.6372414e-05,0.0043947995,0.00035971403,0.001700908,0.0003362298,0.0052765906
0.9316052,1.9669533e-06,0.00031250715,3.59118e-05,3.2782555e-06,0.008342117,0.0075034797,0.009931713,0.008081287,0.06482419
0.0020394623,0.99570394,0.00021854043,0.0007238984,3.1113625e-05,0.003113389,0.0010188818,1.4305115e-05,0.03373742,0.06258404
0.9977405,0.0,0.00011566281,2.2739172e-05,2.9802322e-08,0.004186541,0.00045740604,0.0002629459,0.0012660921,0.00027525425
0.02588594,7.033348e-06,7.200241e-05,2.4527311e-05,2.0861626e-07,0.74293756,0.02822733,0.00012382865,0.25348097,0.005976379
2.3841858e-06,0.0,0.0004839599,0.0033607483,0.9962126,0.99998426,0.0038283467,8.821487e-06,0.00036880374,7.4505806e-07
2.026558e-06,1.9073486e-06,5.6922436e-06,1.2010336e-05,0.0,0.00019004941,0.0059069395,1.013279e-06,0.041772187,0.9892889
0.017111927,0.0012719035,0.00038078427,8.907914e-05,1.3709068e-06,0.0069178343,0.06566873,6.6161156e-06,0.7435182,0.18695766
0.9955472,0.0,0.00023713708,1.5616417e-05,1.7881393e-07,0.0054551065,0.0055012405,0.00058975816,0.00042366982,0.005339235
0.9798493,0.0,1.6570091e-05,4.4703484e-05,1.4901161e-07,0.003971815,0.0014884472,0.04286149,0.0011408329,0.0012663305
0.0005533099,0.00043705106,0.035625786,0.0009663701,0.00019919872,0.0014228821,0.04245141,0.0007299781,0.9923902,0.008851349
5.733967e-05,6.854534e-07,7.6174736e-05,7.05421e-05,7.867813e-06,0.0027508438,0.0018994212,0.11741111,0.935482,0.0010083318
0.03146389,0.0,3.015995e-05,1.5497208e-06,0.0,5.4955482e-05,0.00025847554,0.99782383,1.8775463e-06,5.3048134e-06
0.4600938,1.8179417e-06,4.2676926e-05,2.2947788e-05,1.2814999e-06,0.0032325685,0.0029103458,8.299947e-05,0.77235895,0.031791717
0.9825851,2.9802322e-08,1.22487545e-05,1.6182661e-05,4.7683716e-07,0.0063922703,0.003328979,0.0020105243,0.008875877,0.002945453
2.4229288e-05,9.897351e-05,0.002304405,0.99989593,0.00019833446,0.005063325,0.0032764971,1.692772e-05,0.00048694015,2.18153e-05
1.707673e-05,4.440546e-06,0.00011822581,0.9999828,6.377697e-06,0.0011882782,0.003006667,1.3113022e-06,6.6280365e-05,2.592802e-06
0.00019574165,7.4505806e-06,5.6266785e-05,0.9998361,3.0994415e-05,0.008372307,0.0026178062,3.0398369e-06,0.000102847815,4.4375658e-05
0.0069181323,3.874302e-06,3.156066e-05,8.922815e-05,3.0100346e-06,0.0029387176,0.010118157,0.00013703108,0.9914146,0.0018030405
0.07521364,0.0,3.439188e-05,4.4703484e-06,0.0,0.0019490123,0.001149267,0.994668,0.00015354156,0.0011117458
0.98964155,0.0,0.0010862648,1.6182661e-05,4.172325e-07,0.0010938346,0.0038931072,0.0026147366,0.00021579862,0.0013322532
0.2295002,0.0,2.5331974e-05,4.87566e-05,7.4505806e-07,0.0033700764,0.0025711358,0.040225923,0.45274207,8.329749e-05
0.9407456,0.0,1.5735626e-05,0.07790965,1.1920929e-07,0.004754275,0.0023229718,6.610155e-05,0.0010151565,3.2246113e-05
0.9941701,0.0,2.476573e-05,4.002452e-05,5.066395e-07,0.01184234,0.0013333857,0.00068593025,0.0026046038,0.0006057322
0.5187658,0.0,1.9848347e-05,4.9233437e-05,0.8027998,0.0020180643,0.0010288656,0.0013495684,1.2993813e-05,2.2292137e-05
0.99591357,0.0,0.0012129843,2.682209e-06,5.9604645e-08,0.0025665462,0.0050492883,0.0028614998,0.0002874136,3.71933e-05
0.9926722,0.0,4.991889e-05,4.798174e-06,0.0,0.0052746534,0.002765268,0.0008813739,0.0006006956,0.008000225
0.001191169,1.898408e-05,0.137256,0.0008816421,0.21917716,0.0012690723,0.0049043,0.0011649132,0.99737513,4.1246414e-05
0.9813194,6.854534e-07,0.00093075633,7.048249e-05,1.3709068e-06,0.0017647147,0.004745126,0.003834188,0.00015181303,0.01615411
8.85129e-06,3.734231e-05,6.92904e-05,0.00041300058,1.129508e-05,0.3221537,0.6494951,1.2636185e-05,0.9961108,1.04010105e-05
0.00019466877,0.00038531423,0.0009250343,0.02486819,0.006409794,0.0031740367,0.0037693083,0.00010475516,0.066369265,0.59528905
0.00088480115,1.7017126e-05,0.0004146695,0.9998918,0.0006104708,0.009958506,0.017828763,2.592802e-06,0.0032150447,2.6136637e-05
2.5957823e-05,0.99704945,0.0129497945,0.15878937,0.32634354,0.0101414025,0.0022121072,2.7388334e-05,0.17261782,0.0014263391
0.18236288,4.3809414e-06,0.00048446655,2.527237e-05,1.4722347e-05,0.0016000867,0.005953282,0.0006426275,0.9295402,0.007969171
0.9534974,0.0,1.680851e-05,4.3809414e-06,2.9802322e-08,0.0067373216,0.0010652542,0.0010512471,0.06659612,0.00038573146
0.002504319,0.00023138523,8.85725e-05,0.00036486983,2.503395e-06,0.00059860945,0.010732681,1.1622906e-06,0.028762788,0.9866955
0.069592625,0.0,1.1503696e-05,9.089708e-06,6.854534e-07,0.0025988221,0.00060880184,0.990582,0.0038337111,0.0012424886
0.0,0.0006990135,0.8850297,0.0004287958,1.6212463e-05,1.0,1.6987324e-05,1.7881393e-07,0.26429042,0.0
0.851455,0.0,1.0073185e-05,0.0014616847,6.854534e-07,0.0057926476,0.0020172298,9.763241e-05,0.07692519,0.00010341406
0.00074380636,0.00011011958,0.9102263,0.0007402301,0.00015720725,0.0032907426,0.021460712,6.464124e-05,0.9670743,0.0007504225
0.96155286,2.9802322e-08,0.00015339255,0.00020489097,2.6524067e-06,0.0024924874,0.0027696788,0.0050148666,0.0003325343,0.01749146
7.897615e-06,0.00035068393,6.0230494e-05,0.99932796,1.2487173e-05,0.016780257,0.55529004,7.2717667e-06,0.019017756,0.0013916492
3.170967e-05,1.1920929e-07,0.00021839142,1.2844801e-05,0.0,0.0007647276,0.0119892955,0.0033162236,0.00013816357,0.99478984
0.9885366,8.940697e-08,0.0020952523,4.646182e-05,1.4305115e-06,0.007650912,0.0031998456,0.00042784214,0.0031138957,0.0026741624
0.97957957,2.9802322e-08,4.8309565e-05,0.00011649728,5.841255e-06,0.0052185655,0.003977865,0.00014567375,0.019078523,0.004725933
0.0001180172,4.708767e-06,0.0010122955,0.00046479702,0.01893133,0.00044560432,0.008628249,0.0005440414,0.9994743,5.7011843e-05
0.34015703,2.3931265e-05,0.00023332238,0.000112473965,2.7120113e-06,0.0020083487,0.008921266,3.2663345e-05,0.06252614,0.39258647
0.9975585,0.0,7.4505806e-06,2.1755695e-06,0.0,0.0013091862,0.002375871,0.00018203259,9.581447e-05,0.0004943311
0.0,1.2218952e-06,3.7550926e-06,0.09978184,0.0,8.940697e-08,0.15333182,0.0,2.0563602e-06,0.17577726
0.00010022521,8.940697e-08,4.6044588e-05,9.88543e-05,2.3841858e-07,0.9997784,0.009699792,0.0063976645,7.5399876e-05,0.00031998754
1.3709068e-06,3.1769276e-05,0.35681343,0.99960566,0.0008440316,0.0010595322,0.009454042,8.940697e-08,0.013798803,2.3573637e-05
0.5167669,1.4424324e-05,0.00011762977,3.066659e-05,2.1755695e-06,0.008959353,0.008092284,9.787083e-05,0.11533767,0.2871921
1.8119812e-05,9.119511e-06,5.6177378e-05,0.99991477,1.0430813e-05,0.0071358085,0.0038953424,1.6391277e-06,0.00016409159,2.8163195e-05
0.9725306,0.0,2.026558e-05,3.761053e-05,2.0861626e-07,0.0056310594,0.0055088103,0.0031798482,0.0016598403,0.011518151
0.004691392,5.6028366e-06,0.014189154,0.03188023,0.9818511,0.0035945177,0.01357308,8.869171e-05,0.0059345365,0.02041015
1.6361475e-05,0.9955302,0.00030583143,0.7354014,1.0639429e-05,0.0131494105,0.02060026,1.7881393e-07,0.9983167,6.5267086e-05
0.9675834,8.940697e-08,0.00011751056,0.0003322065,6.404519e-05,0.011380285,0.0041978955,8.285046e-06,0.03359434,0.0009174943
1.1622906e-06,0.00023922324,0.9928793,0.00016456842,0.003034681,0.0057925284,0.007202238,4.851818e-05,0.9862312,4.464388e-05
0.9293635,3.4570694e-06,0.02997762,2.4557114e-05,4.172325e-07,0.010417759,0.0025945306,0.00042200089,0.0022252798,0.08481395
0.00012740493,0.00022926927,0.00037917495,0.0011313856,0.00027522445,0.9895544,0.026408643,4.181266e-05,0.9682801,0.00048038363
0.0,0.0006790459,0.0074670017,8.034706e-05,0.00041273236,1.0,0.00051650405,2.9802322e-06,0.051495194,3.3676624e-06
0.00018504262,0.00012600422,0.0072664917,0.9997989,0.00015181303,0.008616358,0.062396288,2.8908253e-06,0.00033268332,0.000256747
1.579523e-05,0.0,1.5884638e-05,7.033348e-06,1.013279e-06,0.00066551566,0.0015580356,0.9998105,0.0010024607,0.0017744601
0.98957396,2.9802322e-08,0.0010494888,2.4795532e-05,8.046627e-07,0.0026778579,0.002658099,1.9460917e-05,0.0015663207,0.00067931414
0.9942704,0.0,2.5779009e-05,1.3887882e-05,2.3841858e-07,0.009208471,0.0030053854,0.002041459,0.0019666255,0.00088483095
0.9901943,2.0861626e-07,0.0005764365,5.930662e-06,8.940697e-08,0.0022626817,0.004342705,0.00017234683,0.0018162429,0.008741856
0.16290924,1.1920929e-07,1.40964985e-05,8.85427e-05,3.963709e-06,0.0025228262,0.0012950301,0.0002490878,0.9512805,0.0014158785
0.7658591,2.0474195e-05,0.00088477135,0.0005541444,2.5093555e-05,0.0029124916,0.0092816055,1.9013882e-05,0.23332131,0.0115835965
0.0025044978,0.00023144484,8.85427e-05,0.00036495924,2.4437904e-06,0.00059860945,0.01073274,1.1622906e-06,0.028757513,0.9866967
0.0075347424,0.00043037534,0.0025648773,0.00086185336,2.3841858e-07,0.0006943941,0.004417181,3.5852194e-05,0.1057176,0.9629196
0.0006314516,0.056668162,0.008074164,0.004155338,2.6583672e-05,0.01123628,0.016237646,0.0004749298,0.003427744,0.8478399
0.10442665,1.7613173e-05,0.00023293495,0.0001090467,6.8843365e-06,0.0017722249,0.009821057,3.412366e-05,0.9627106,0.019258797
0.96959317,8.940697e-08,0.00022315979,1.0609627e-05,8.940697e-08,0.0022550821,0.0049790144,0.00034588575,0.010276854,0.032992125
0.0,0.9999893,3.784895e-06,8.276105e-05,0.010747582,0.0019672215,2.8043985e-05,4.6014786e-05,0.08476761,1.6987324e-06
0.025157452,9.596348e-06,0.000870198,3.156066e-05,2.5331974e-06,0.0035463572,0.01055792,0.001531601,0.97744143,0.014385492
0.049314618,2.5629997e-05,2.2441149e-05,9.587407e-05,9.536743e-07,0.023183525,0.8996265,0.0038682818,0.0043342113,0.009896278
0.5562994,4.172325e-07,1.513958e-05,0.0002643764,2.2351742e-06,0.0016956329,0.0013929307,1.4841557e-05,0.79277736,0.0016570985
3.963709e-06,0.99877393,0.00092455745,0.93379784,0.0008266866,0.012146741,0.0012648702,5.3048134e-06,0.022266537,0.00039470196
6.92606e-05,0.0001500845,0.0019512177,0.9976157,0.0022146404,0.0072441697,0.01216045,3.325939e-05,0.0005890429,0.05057296
0.9034895,2.682209e-07,0.00038403273,0.041850954,0.00013804436,0.012459785,0.0028208792,2.8014183e-05,0.013805568,0.0084549785
0.34604597,0.0007202625,0.004559517,0.00014150143,1.6391277e-06,0.0041234195,0.007995099,2.3812056e-05,0.6230313,0.10655329
0.13794324,1.9073486e-06,0.0560264,0.00017976761,1.9788742e-05,0.0016158819,0.0049263835,1.513958e-05,0.9403136,0.0004698038
3.6925077e-05,3.0100346e-06,3.3199787e-05,2.2679567e-05,4.5001507e-06,0.00072035193,0.0022876859,0.00015550852,0.9999,5.2660704e-05
0.36316812,1.0102987e-05,0.00011667609,0.0003812909,4.3809414e-06,0.008027822,0.0077296793,0.00062578917,0.77854526,0.010432988
0.56161386,0.0,2.3186207e-05,0.00011226535,2.3841858e-07,0.0015289187,0.003918439,0.04887712,0.012429982,0.0042707026
0.99496853,0.0,0.00012403727,1.7017126e-05,1.4901161e-07,0.008085847,0.0028000176,8.368492e-05,0.0033545196,0.0021285415
0.9991959,0.0,5.3942204e-06,8.493662e-06,0.0,0.0026898682,0.0008558035,8.9377165e-05,4.017353e-05,0.00019648671
8.046627e-06,2.8312206e-06,2.092123e-05,0.99996984,3.33786e-06,0.007874697,0.1297321,9.834766e-07,2.3841858e-05,1.3113022e-06
0.014356226,4.7683716e-07,5.185604e-06,1.8119812e-05,2.9802322e-07,0.0028335452,0.0024350882,1.475215e-05,0.98871326,0.0005662143
0.9725901,0.0,0.00015109777,1.6540289e-05,6.2584877e-07,0.008490503,0.003317982,0.032480925,0.0056241155,0.0057178736
0.99944794,0.0,8.46684e-05,2.4586916e-05,8.940697e-08,0.0019458532,0.001957178,0.00016602874,4.5657158e-05,0.00021263957
0.025023192,2.1576881e-05,0.00028854609,8.678436e-05,5.90086e-06,0.0030717552,0.008854181,9.2715025e-05,0.9891038,0.0033755898
0.98951423,0.0,8.34465e-05,3.7133694e-05,2.3841858e-07,0.006374538,0.0018051565,7.325411e-05,0.004690647,0.0005669594
0.668161,1.847744e-06,0.000106185675,1.564622e-05,5.662441e-07,0.0028136373,0.0043666065,6.93202e-05,0.3839506,0.06739324
0.00020435452,0.94645953,0.000420779,0.00017106533,7.987022e-06,0.015376747,0.043953836,2.6911497e-05,0.0023719668,0.12401375
0.0028152168,1.1920929e-07,8.076429e-06,0.0030398965,0.0,0.055356055,0.98493326,0.00022956729,4.9352646e-05,3.746152e-05
0.012943596,0.00014832616,0.00014814734,0.0005196035,6.0796738e-06,0.4669827,0.31929636,0.0014338195,0.10425231,0.038632005
0.0010825992,2.4437904e-05,0.00036239624,0.018860042,1.0460615e-05,0.0029629767,0.022438735,4.3809414e-06,0.9948596,0.0038298368
0.49259964,7.531047e-05,0.00032904744,7.483363e-05,1.7881393e-07,0.002013594,0.004992306,0.0008507967,0.00042256713,0.8900999
1.3709068e-05,2.9802322e-08,1.1265278e-05,6.824732e-06,0.04722175,0.000109791756,0.0009492636,0.97241306,0.30740696,0.00018340349
0.0004937649,0.8893157,0.01536569,0.42928553,0.00011143088,0.035520375,0.037622035,1.0192394e-05,0.16385087,0.010308653
0.00089913607,4.23193e-06,0.00017985702,0.99957794,0.00071567297,0.022943527,0.0040093362,4.4703484e-06,0.0015348196,5.2541494e-05
0.999183,0.0,1.2218952e-05,2.4527311e-05,2.9802322e-08,0.0027153492,0.0019254982,0.00034055114,5.3435564e-05,0.00016239285
0.025716782,5.00679e-06,0.0011840761,7.301569e-06,2.8312206e-06,0.0016971827,0.0017989278,0.98687756,8.6039305e-05,0.020588368
0.00023677945,1.9192696e-05,0.0017281175,0.00070634484,2.3007393e-05,0.9998378,0.0034584105,1.0102987e-05,0.014801055,0.002433449
0.00050213933,5.364418e-07,0.00013384223,0.00014910102,5.9604645e-08,2.0235777e-05,0.0017908514,0.00012469292,3.4749508e-05,0.99866986
4.708767e-05,0.9731327,0.0011305511,0.012889594,7.247925e-05,0.011982381,0.010529876,1.30832195e-05,0.9995042,0.00013110042
0.0,5.7548285e-05,0.0030901432,0.99997306,0.00030833483,0.0075317025,0.71605396,4.172325e-07,0.03694749,1.1324883e-06
0.4596873,4.172325e-07,0.000174433,0.000113874674,3.6805868e-05,0.0072380006,0.007774949,0.00063592196,0.75146717,0.003744334
1.7881393e-07,9.536743e-07,1.7881393e-07,2.18153e-05,0.0,0.0013314486,0.9871663,1.013279e-06,0.9994408,2.3245811e-06
0.8548421,1.3232231e-05,0.00044852495,2.8759241e-05,2.95043e-06,0.0059831142,0.005975157,0.0022755265,0.0068763793,0.2791912
0.061942816,2.9802322e-08,2.0325184e-05,5.185604e-06,7.748604e-07,0.0019794405,0.001550585,0.00066384673,0.95488405,0.00020420551
0.00013917685,1.9580126e-05,0.00014361739,0.00018981099,0.00037777424,0.0010462701,0.004380822,0.0005428493,0.9992761,0.0010932088
0.001340121,0.010894477,0.00032049417,0.00068101287,0.00010418892,0.035279334,0.8738296,0.00016230345,0.009999275,0.12595642
0.9979226,8.940697e-08,0.00020503998,0.00019064546,2.95043e-06,0.0041810274,0.0041176677,1.9818544e-05,0.00045469403,0.00023332238
0.9982927,2.9802322e-08,9.596348e-06,1.6242266e-05,0.0,0.005213529,0.004367709,0.00017437339,0.00021088123,0.0011375248
0.00036993623,0.0,8.401275e-05,0.00029927492,8.940697e-08,2.7418137e-06,0.00019532442,0.00011822581,0.000991404,0.9997237
0.9747989,2.9802322e-07,0.00062677264,0.00016281009,1.9073486e-06,0.004286498,0.0129980445,0.0012657344,0.0012339354,0.01593259
0.00037992,0.9931438,0.002649188,0.0008325577,0.0005812347,0.004495591,0.0010924041,0.0007535219,0.053670615,0.00847137
8.34465e-07,2.9802322e-08,1.0460615e-05,0.9999881,0.13400999,0.0030097961,0.0045515597,1.4901161e-07,0.0012487769,3.874302e-07
2.0861626e-07,9.23872e-07,2.05338e-05,0.000106841326,2.9802322e-08,0.003917426,0.9999999,1.0222197e-05,1.1503696e-05,1.1920929e-07
0.99153924,0.0,0.00026884675,2.026558e-06,0.0,0.0026488006,0.00427714,0.006971836,3.901124e-05,0.0003053248
1.54078e-05,1.937151e-06,0.9975898,0.00040107965,9.685755e-06,0.0049708188,0.013027936,1.1831522e-05,0.9945024,1.8715858e-05
0.0,0.0009356737,0.0058591664,0.00020512938,8.5771084e-05,0.99999976,0.0020931065,8.6426735e-07,0.0033263564,0.00016155839
0.9875014,7.4505806e-07,0.000302881,1.0102987e-05,8.940697e-08,0.004156947,0.0034438968,0.00041684508,0.0035720766,0.0381068
4.5865774e-05,1.8179417e-05,0.008538485,3.5643578e-05,3.784895e-06,0.9995916,0.04327041,0.019027293,0.00097325444,0.0037201345
0.00038012862,4.7683716e-07,1.14142895e-05,0.00013753772,2.9802322e-08,0.00016051531,0.00470528,0.0005212128,0.9995942,0.00011777878
0.0,0.0008146763,0.00072064996,0.004228413,0.0013627112,0.8067277,0.9417166,7.1525574e-07,0.22822717,4.5776367e-05
4.091859e-05,0.97515285,0.0010733604,0.9033425,0.0005789995,0.013057172,0.028167874,6.1392784e-06,0.335104,0.001819104
0.00022190809,1.5556812e-05,0.00075259805,0.00016826391,1.3411045e-06,0.9999609,0.024043322,7.688999e-06,0.17295524,4.145503e-05
0.022590369,0.003096521,0.005347848,0.025179476,2.0682812e-05,0.0025413334,0.002770722,3.424287e-05,0.0012286603,0.8957696
0.6547691,3.33786e-06,0.00013512373,0.00014063716,1.1026859e-06,0.0025538504,0.0039316714,2.2292137e-05,0.6606152,0.007889956
0.76794744,0.0,1.7046928e-05,4.5895576e-05,1.7881393e-07,0.0020540953,0.000844419,0.0032070577,0.25501603,0.00037387013
0.0,2.7388334e-05,0.010927975,0.0024540424,0.005720794,0.9999999,0.00025960803,5.6922436e-06,0.00402534,1.5795231e-06
0.0004118979,0.007720858,0.6436135,0.0015718639,1.9311905e-05,0.0016294718,0.035767615,0.00026589632,0.9956381,0.006413579
0.015898228,0.0005425513,0.016526878,0.0006970465,0.016916335,0.0028377473,0.007876813,0.00088995695,0.42722178,0.21416894
0.00032654405,0.005200416,0.002363652,0.0010479689,0.00010147691,0.43365455,0.0348154,3.361702e-05,0.99684554,0.00137344
0.8783418,2.4735928e-06,5.51641e-05,1.6629696e-05,8.6426735e-07,0.008602172,0.0067617595,0.017798334,0.004310131,0.05842012
0.9527886,0.0,7.033348e-05,4.6372414e-05,1.013279e-06,0.0012088418,0.0024334192,7.367134e-05,0.028281212,0.018440187
8.1181526e-05,0.00018277764,0.00075033307,0.0007098913,4.798174e-06,0.99740285,0.15886867,0.0052558184,0.009997845,0.002913028
6.708503e-05,6.6161156e-06,0.98976386,0.0006392896,0.00010982156,0.007589519,0.01279065,6.4969063e-06,0.9947549,9.059906e-06
2.9802322e-08,0.0023621023,0.09268966,0.00038686395,5.301833e-05,0.040034562,0.12689611,2.8848648e-05,0.9752637,2.0354986e-05
0.00038322806,0.0059357285,0.00078845024,0.44911975,0.001909852,0.012642562,0.8422068,5.3346157e-06,0.066749334,0.17890048
0.0075313747,4.3213367e-06,0.004691601,0.990367,0.96427864,0.007924408,0.0072621405,1.4692545e-05,0.0026022494,0.0011787415
0.0020463169,7.4505806e-07,0.99666643,0.0010293722,3.8802624e-05,0.0023606718,0.009231597,0.0002887547,0.0006683171,0.0014423132
0.24826363,9.23872e-07,8.353591e-05,0.000100791454,2.3841858e-06,0.0021494925,0.0048404336,3.6269426e-05,0.90060997,0.0032430291
3.2782555e-07,0.8618523,0.11102411,0.99986047,0.29095352,0.018608123,0.0010636151,3.33786e-06,0.0026139915,6.66976e-05
0.99877864,0.0,4.4882298e-05,4.7385693e-06,0.0,0.007481545,0.001288712,3.84748e-05,0.00052547455,0.000505805
0.012980282,6.854534e-07,6.2584877e-06,1.8656254e-05,0.0,0.019062042,0.98803127,8.4489584e-05,0.0009248853,6.839633e-05
0.00014391541,3.963709e-06,0.00037032366,0.00013229251,0.052788675,0.00051030517,0.0036067069,0.0007750392,0.9995779,4.2915344e-05
0.00019037724,3.5762787e-07,2.1725893e-05,0.99987954,4.4703484e-07,0.00096586347,0.007125765,2.8312206e-06,1.7434359e-05,7.4505806e-06
0.9982567,0.0,1.385808e-05,2.3245811e-06,4.172325e-07,0.005776465,0.0015746653,0.00022467971,4.23491e-05,7.1823597e-06
0.02493468,9.23872e-07,0.0010291636,0.8911646,1.4901161e-07,0.008200109,0.004246354,2.7418137e-06,0.00026154518,0.00020414591
0.012150228,5.9604645e-08,0.00052434206,0.00024968386,0.28728992,0.0005892813,0.0012235045,0.0020566285,0.94637954,0.00013816357
0.0028857887,1.0639429e-05,0.00060144067,3.325939e-05,2.3841858e-06,0.99967706,0.010428548,8.9645386e-05,0.06551853,0.008360356
0.9979233,2.9802322e-08,0.00014695525,0.00011751056,2.9802322e-08,0.0016709566,0.0019147098,7.852912e-05,0.0001180768,0.0005518198
1.6480684e-05,1.4215708e-05,0.025057584,0.9999591,2.4825335e-05,0.0024817884,0.0017214417,2.8908253e-06,1.2665987e-05,3.990531e-05
0.80667174,0.00054749846,0.0051489174,3.1799078e-05,5.9604645e-08,0.0012814701,0.0022767782,0.00015580654,0.010728747,0.3284431
7.1167946e-05,0.0,0.000118047,1.5795231e-06,4.172325e-07,0.0008956492,0.0016000271,0.99996185,0.0005453825,0.0017491281
0.00029602647,5.0365925e-06,1.8507242e-05,0.00013166666,5.066395e-07,0.010409683,0.9616244,0.00020378828,0.23983741,0.00018206239
0.00038149953,1.4901161e-06,3.4958124e-05,0.0005583167,8.940697e-06,0.00051036477,0.0034150183,1.1116266e-05,0.9996219,5.352497e-05
0.9955654,0.0,3.159046e-05,1.335144e-05,7.748604e-07,0.008620888,0.009477794,0.00022545457,0.00062426925,0.0017039776
0.18543452,0.00020200014,0.0018857718,0.00015616417,4.61936e-06,0.0047279894,0.018784225,2.82228e-05,0.21830332,0.4990452
0.55071646,1.9967556e-06,0.00010666251,8.285046e-06,2.9802322e-07,0.2325404,0.0438731,0.00020515919,0.0063138604,0.0064408183
0.004071027,2.771616e-06,0.000119030476,0.9993297,0.00036355853,0.009248614,0.0048041046,7.0631504e-06,0.004473567,0.00036618114
0.84106445,4.142523e-06,0.016818136,0.00025758147,7.382035e-05,0.0055321753,0.008046955,0.00017663836,0.056930155,0.055199116
4.827976e-06,0.83285713,0.008185387,0.0009862483,0.00020340085,0.023832709,0.0035372078,6.0886145e-05,0.09838101,0.0057555735
0.99165845,5.9604645e-08,0.00016149879,5.3703785e-05,5.9604645e-07,0.005834639,0.0024057329,0.00012901425,0.0026781857,0.0013641417
0.97376466,0.0,2.7000904e-05,0.00013718009,8.34465e-07,0.0049031675,0.004341364,0.0027544498,0.0002348721,0.010697782
4.440546e-06,1.2934208e-05,8.434057e-05,0.9999439,1.6391277e-06,0.03938353,0.03662646,1.2814999e-06,7.9125166e-05,1.475215e-05
0.99697936,0.0,1.1920929e-05,3.2931566e-05,8.940697e-08,0.0031270087,0.0011526048,3.2633543e-05,0.005530745,0.00013667345
2.3245811e-06,7.1525574e-07,2.0205975e-05,2.6017427e-05,4.172325e-07,0.99976003,0.17386362,0.00023418665,0.0028469265,0.0025641918
1.4424324e-05,0.99651563,0.001240313,0.00894624,0.0007546246,0.0037286878,0.004235804,1.6599894e-05,0.9990609,1.680851e-05
0.9946295,0.0,4.145503e-05,5.531311e-05,3.5762787e-07,0.008435816,0.0011522472,4.7683716e-05,0.00482291,0.0011466444
0.98941207,2.9802322e-08,0.00010249019,0.00022917986,3.5762787e-07,0.008597612,0.005228311,0.0003039539,0.002149403,0.0016286373
0.071249664,7.2717667e-06,3.6627054e-05,0.00016358495,9.23872e-07,0.011140704,0.95313877,0.00023174286,0.0003875494,0.0038106441
0.0017216802,0.0,5.4061413e-05,7.987022e-06,5.066395e-07,0.0004069805,0.00090277195,0.9998238,0.00015625358,0.0011272132
0.00016254187,1.5199184e-05,0.00043314695,0.00013381243,4.9948692e-05,0.9999964,0.033365965,2.0205975e-05,0.011885196,0.000101953745
0.0,0.9858695,0.00018516183,6.854534e-07,5.364418e-07,0.65437865,0.017398566,2.9802322e-07,0.63808215,4.348159e-05
0.99470866,0.0,3.579259e-05,2.5600195e-05,6.854534e-07,0.010461926,0.0014682412,9.164214e-05,0.002518028,0.0036440194
0.00090813637,1.4603138e-05,0.00014322996,0.63448125,0.00039741397,0.0014582872,0.0044754744,6.097555e-05,0.9977529,0.000113874674
0.9985926,0.0,7.212162e-06,7.5399876e-06,0.0,0.002562821,0.0013319254,0.000295192,0.00022417307,0.00014561415
3.4570694e-06,5.364418e-07,0.00013923645,0.9999973,0.024287462,0.010939419,0.0039348304,1.7881393e-07,0.00060623884,2.9802322e-08
0.025475562,9.208918e-06,9.715557e-06,0.00023040175,0.0,0.8065355,0.4100793,3.454089e-05,0.0006890297,0.0025146008
0.9949825,0.0,1.3977289e-05,1.8179417e-05,2.0861626e-07,0.001804471,0.0010664761,0.0028541684,2.7656555e-05,0.00054192543
6.753206e-05,0.00048166513,2.7000904e-05,1.0192394e-05,3.8832426e-05,0.0032593012,0.73116535,5.39124e-05,0.9931111,0.003970951
0.9726964,8.940697e-08,7.7456236e-05,7.44164e-05,4.6789646e-06,0.005319208,0.0041050017,0.00029161572,0.005334884,0.033291757
0.9931824,8.940697e-08,6.9499016e-05,1.7493963e-05,4.7683716e-07,0.0063070655,0.0039614737,5.2839518e-05,0.003008753,0.003954917
0.9898151,0.0,8.612871e-05,8.523464e-06,2.0861626e-07,0.009164363,0.0058727264,0.0064865053,0.0014062226,0.0022561252
0.0076860487,5.841255e-06,2.2113323e-05,4.6223402e-05,1.4007092e-06,0.002517283,0.0038541257,4.029274e-05,0.9951011,0.0022803843
0.06430489,1.8924475e-05,0.0004940927,4.9561262e-05,1.013279e-06,0.00280115,0.006178677,0.00016394258,0.9792603,0.007087469
0.015559584,1.4126301e-05,0.00020030141,0.00013235211,1.2516975e-06,0.0019919276,0.012843311,0.0008724332,0.09190345,0.9108001
0.61122024,2.9802322e-08,4.7504902e-05,4.6998262e-05,1.4215708e-05,0.0061644316,0.0031210482,0.000114649534,0.7087715,0.00024026632
1.013279e-06,0.0,6.854534e-06,0.999998,4.887581e-06,0.0005015731,0.0007684231,2.9802322e-08,1.9192696e-05,9.23872e-07
0.0011218488,8.940697e-08,3.33786e-06,3.8444996e-06,2.0861626e-07,0.0014435351,0.005017847,0.0027046204,0.9923243,0.00010371208
0.0002927482,0.00014609098,0.0056401193,0.99963146,0.0025916994,0.02695772,0.008216888,3.3676624e-06,0.12467328,5.5640936e-05
1.6093254e-06,1.7881393e-07,1.5676022e-05,0.9999937,0.0003016293,0.0015184283,0.0011787713,7.748604e-07,1.680851e-05,3.5762787e-07
0.98903733,2.9802322e-08,0.00013291836,3.489852e-05,4.9471855e-06,0.008436114,0.0042063594,0.0063266754,0.0015793741,0.002390921
0.032373816,4.172325e-07,0.00044050813,0.00019845366,0.41055104,0.0008955896,0.0027289987,0.0042077303,0.26061445,0.0005761683
0.0,1.13248825e-05,0.0015818179,0.99304736,0.9982985,0.040405065,0.99387324,1.1622906e-06,0.00017917156,1.1622906e-06
0.9915403,0.0,1.1086464e-05,1.12354755e-05,5.9604645e-08,0.006734222,0.0088587105,0.0014186203,0.00064891577,0.0008979738
0.0024259388,0.0002540648,7.992983e-05,0.00031366944,9.208918e-06,0.0013574958,0.016629487,8.299947e-05,0.9977061,0.0047783554
0.008067369,2.8133392e-05,0.0016838312,0.0004904568,1.9818544e-05,0.0011976063,0.0062288344,3.8713217e-05,0.9971008,0.0012005568
0.0002708435,1.8894672e-05,4.2825937e-05,0.00048807263,2.1338463e-05,0.0038145185,0.005974233,5.7518482e-05,0.9995263,0.0006247461
0.00041416287,0.9890966,0.0008005202,0.0012064278,7.9363585e-05,0.0053343177,0.0045193434,0.00022739172,0.65058374,0.023133785
0.0004093051,3.7252903e-06,0.0002490878,0.99680656,0.0029125512,0.001460135,0.0034196377,1.4513731e-05,0.00015312433,0.0047979057
2.3841858e-06,1.4811754e-05,0.99519086,6.246567e-05,0.00013831258,0.99995613,0.007613957,3.412366e-05,0.0032874644,9.655952e-06
0.45088318,3.874302e-07,0.00027301908,1.835823e-05,8.940697e-07,0.6280087,0.00513348,0.0021120906,0.00024968386,0.0048140287
2.1398067e-05,0.00048661232,0.020490497,4.0501356e-05,1.463294e-05,0.99999976,0.008294493,3.772974e-05,0.0054402947,0.00020736456
0.95097876,2.682209e-07,0.0003338158,6.28829e-06,2.9802322e-07,0.00791657,0.0062693357,0.02912137,0.0013092756,0.025401473
2.8312206e-06,1.4901161e-07,1.2814999e-06,0.00013822317,7.748604e-07,0.0021184683,0.0023887157,6.943941e-06,0.9999497,2.2053719e-06
0.0013999343,2.0861626e-07,9.715557e-06,1.7046928e-05,1.1920929e-07,0.0012595356,0.0017594993,0.00014448166,0.9982971,0.0005366504
0.015934229,2.0861626e-07,0.0003029704,9.128451e-05,4.5627356e-05,0.0006631613,0.0015432239,0.0016894639,0.9921557,0.00097608566
0.5191305,3.3080578e-06,5.4121017e-05,6.0617924e-05,1.1920929e-07,0.009283125,0.0017863214,0.00045529008,0.781904,0.031268418
0.0015728772,8.353591e-05,4.4375658e-05,0.00012111664,3.5762787e-07,0.00076019764,0.010290951,0.00018793344,0.9971272,0.007062882
0.0033189058,0.8996665,0.0025526881,0.0021874905,5.930662e-05,0.00910598,0.017674506,0.00021931529,0.041938543,0.13210788
3.8206577e-05,0.008977354,0.37903634,0.9996399,0.10462856,0.0439485,0.011294246,1.770258e-05,0.18461674,7.215142e-05
0.9872682,0.0,1.3977289e-05,9.536743e-06,0.0,0.0046691895,0.004254043,0.0005339682,0.008853883,0.00078985095
0.0010335743,1.847744e-06,2.7567148e-05,7.840991e-05,1.1116266e-05,0.0015929937,0.002944976,0.0012193322,0.9993489,0.00026461482
0.51981825,0.0,3.260374e-05,5.2899122e-05,1.4305115e-05,0.0015106797,0.0024592578,0.00015613437,0.61385804,0.00010201335
2.95043e-06,0.15215427,0.040134966,0.0023037493,6.4611435e-05,0.02188924,0.822894,4.8726797e-05,0.9889232,0.0001835525
0.005899042,2.5063753e-05,0.10662618,0.00013449788,4.5001507e-06,0.012867868,0.9617446,0.0002745092,0.0027790666,0.0015711784
0.21708828,3.2246113e-05,0.00038322806,0.000117093325,3.4570694e-06,0.016209096,0.011050403,4.0650368e-05,0.021910131,0.7951339
0.99784315,0.0,5.6654215e-05,1.8656254e-05,2.9802322e-08,0.0044570863,0.0026411712,0.00013586879,0.00030732155,0.00092995167
0.94516873,0.0,9.524822e-05,1.6897917e-05,1.937151e-06,0.010454148,0.0041368008,0.013510615,0.018318713,0.0043486953
0.98296213,0.0,8.1807375e-05,1.2308359e-05,0.0,0.0008812845,0.0008574724,0.004144877,0.0005759299,0.00178352
4.4703484e-07,0.9557875,0.026441425,8.815527e-05,0.0040827096,0.009761184,0.00051659346,0.0011110902,0.019355744,0.0008933246
0.034804255,0.000104010105,0.089606285,0.00012636185,8.136034e-06,0.004393637,0.008409083,5.9336424e-05,0.97282207,0.0039011538
0.00039184093,0.17684916,0.07172546,0.04122615,2.1368265e-05,0.013197094,0.014810413,2.0503998e-05,0.11114988,0.4649191
0.97703767,0.0,7.7813864e-05,4.184246e-05,2.6196241e-05,0.004144162,0.0033371747,0.00014457107,0.018941164,0.00022533536
0.9753956,3.5762787e-07,9.223819e-05,3.5464764e-05,1.8775463e-06,0.007082939,0.0042162836,0.000120550394,0.015683144,0.015414715
5.9604645e-08,0.050474584,0.79098403,0.9999037,0.21745533,0.07467744,0.032559097,1.7881393e-06,0.017704874,3.0368567e-05
1.1920929e-06,0.99532944,0.0020412803,0.0006109178,0.0006929338,0.018125802,0.00086444616,1.9460917e-05,0.6492101,0.0018793046
0.0038595796,5.6803226e-05,0.00011500716,9.6827745e-05,1.6093254e-06,0.0012815595,0.007075727,3.85046e-05,0.99689734,0.012851417
0.9535677,9.506941e-06,0.0002616346,1.9282103e-05,5.9604645e-08,0.014300257,0.037959814,0.00013911724,0.00087437034,0.017170727
0.00087445974,1.1712313e-05,0.0002335906,0.0053538084,0.00011727214,0.0014820695,0.008861989,0.00012397766,0.99863946,0.0008265972
0.0008109808,2.0861626e-07,0.0002937019,0.0001386702,0.26266158,0.0003387034,0.0027388036,0.019910723,0.9960824,3.167987e-05
0.9979919,0.0,0.00027760863,2.7656555e-05,5.364418e-07,0.0019556582,0.0029255152,5.8084726e-05,0.00036239624,1.603365e-05
0.00018292665,0.00020390749,0.00022429228,0.00018292665,2.592802e-06,0.9949306,0.024746597,8.699298e-05,0.6904501,0.022357136
0.0,0.97746766,0.007074237,0.024947971,0.001971215,0.99998236,0.00010177493,2.413988e-06,0.11437917,5.2452087e-06
0.010343939,7.966161e-05,0.00064116716,0.98346126,1.3142824e-05,0.00960961,0.009189516,0.00020286441,0.00072437525,0.0038141906
0.9960829,0.0,0.000103354454,3.427267e-06,1.4901161e-07,0.001962036,0.0031746328,0.007489264,0.000603348,4.4107437e-05
0.54059035,6.556511e-07,0.00050884485,4.1216612e-05,8.940697e-08,0.00095045567,0.006629467,0.22463295,0.00056135654,0.31836486
0.02158773,1.052022e-05,0.96614766,0.00039339066,1.8447638e-05,0.005583018,0.008750498,0.00023010373,0.31086174,0.00082585216
0.50699526,5.9604645e-08,3.3527613e-05,1.3440847e-05,1.1920929e-07,0.0012864172,0.0017451346,0.5866445,0.00020354986,0.16373235
0.99543524,0.0,4.3421984e-05,9.208918e-06,1.7881393e-07,0.006361723,0.005759865,0.0022175312,0.00045233965,0.0005583465
4.813075e-05,0.36438257,0.041385353,0.99603164,0.0012354553,0.021712452,0.119142175,5.364418e-07,0.83019966,0.0038320422
0.9928504,2.9802322e-08,0.00048536062,2.193451e-05,7.4505806e-07,0.0050632358,0.0025752485,0.00021669269,0.001062721,0.00573048
0.056607664,6.172061e-05,0.0012425482,1.758337e-05,4.7683716e-07,0.0024632514,0.0072383285,0.00016456842,0.9274775,0.03286311
0.003417641,0.00039044023,3.993511e-06,3.8594007e-05,1.9967556e-06,0.0055256784,0.9409416,0.00045517087,0.06826252,0.019218177
2.9802322e-07,2.9802322e-07,0.00013449788,0.9999484,0.0001180768,0.0025247931,0.011209816,3.629923e-05,3.385544e-05,2.7090311e-05
0.9979768,0.0,0.00036722422,5.0008297e-05,2.1457672e-06,0.004102975,0.0043453574,4.1246414e-05,0.00028300285,0.00027632713
0.99924,0.0,8.371472e-05,1.49309635e-05,0.0,0.0024105906,0.002320379,0.00011819601,6.455183e-05,0.0005108118
0.0005426407,7.772446e-05,0.0009596944,0.00089126825,9.149313e-06,0.9981196,0.031711787,0.00031349063,0.0019195974,0.1140244
2.4408102e-05,0.0,9.208918e-06,0.00011354685,9.095669e-05,0.00086566806,0.0007067621,0.13972443,0.9997314,6.467104e-06
3.5494566e-05,0.00010249019,1.9311905e-05,0.00080055,3.7550926e-06,0.0019815564,0.6048484,0.00027400255,0.9994527,0.00010678172
9.1165304e-05,3.7252903e-06,6.7055225e-06,8.109212e-05,3.0696392e-06,0.00068339705,0.004410863,0.0012346208,0.9994967,0.00032570958
8.285046e-06,0.0016686022,0.9784978,0.0051510334,0.0008030236,0.035802007,0.28297204,8.317828e-05,0.5554072,0.002269119
0.990641,8.940697e-08,3.248453e-05,0.0001758635,1.1920929e-07,0.009358197,0.0024992228,8.7469816e-05,0.00071170926,0.017135024
0.0025044978,0.00023144484,8.85427e-05,0.00036495924,2.4437904e-06,0.00059860945,0.01073274,1.1622906e-06,0.028757513,0.9866967
0.0049329996,0.0,0.0074133575,0.0001527965,0.99975634,0.0020266473,0.0059793293,0.00015237927,0.00021603703,1.4603138e-05
0.96526444,1.0758638e-05,0.0020189285,0.00019532442,1.4007092e-06,0.0067399144,0.0033700764,3.7133694e-05,0.0031466782,0.026090711
0.13716617,1.2129545e-05,0.00037005544,0.00059115887,1.32620335e-05,0.020753354,0.030638129,0.0005402267,0.046337932,0.17232004
0.9973854,0.0,3.1769276e-05,1.3768673e-05,1.1920929e-07,0.003221035,0.0011049509,6.0141087e-05,0.008114457,8.824468e-05
0.00044986606,0.0,0.0005310476,9.804964e-06,1.2516975e-06,2.0563602e-06,0.0025248826,5.8799982e-05,8.5532665e-05,0.9995531
0.0003989339,2.0861626e-07,1.1265278e-05,3.6031008e-05,1.847744e-06,0.005674571,0.004713565,0.002793938,0.99694437,0.00038716197
0.49329498,6.7055225e-06,0.00029665232,0.012740105,1.9460917e-05,0.019372404,0.020590276,1.4811754e-05,0.37984493,0.020342588
0.983269,6.854534e-07,0.00017285347,0.0001655221,3.8146973e-06,0.0075060725,0.007918209,1.9341707e-05,0.007322103,0.0024889112
2.9802322e-08,5.066395e-07,5.9604645e-07,3.6656857e-06,0.0,0.0024713278,0.9999975,0.00011846423,0.00077691674,2.2053719e-06
1.1920929e-07,0.00028297305,0.0010528266,0.0004762709,7.4505806e-06,1.0,0.0018535256,1.1533499e-05,0.109706104,1.7255545e-05
0.0043254793,2.3186207e-05,0.00026860833,0.99319184,1.0281801e-05,0.00091668963,0.0006237328,8.568168e-05,6.5654516e-05,0.002645284
0.9958973,0.0,4.002452e-05,5.453825e-06,1.1265278e-05,0.007005155,0.0014333725,0.0007826388,0.00026857853,8.2701445e-05
6.446242e-05,2.8312206e-06,0.00048339367,0.99997383,3.4809113e-05,0.0016848743,0.0064563453,1.7285347e-06,0.0002925098,5.722046e-06
1.3411045e-06,0.9787406,0.0032126606,0.9972389,0.0012946129,0.0060627162,0.0051735938,7.95722e-06,0.14260054,0.00052544475
0.99069,0.0,2.9027462e-05,1.1026859e-05,1.1920929e-07,0.008302301,0.011782408,0.0010745227,6.92606e-05,0.00026327372
1.1920929e-07,7.748604e-07,0.0024333894,0.0003258884,0.4357564,0.99996257,0.0056875944,7.084012e-05,6.1929226e-05,2.503395e-06
2.4735928e-06,9.834766e-07,0.00022381544,0.99999714,8.589029e-05,0.001368016,0.0032441616,3.5762787e-07,2.1755695e-05,4.172325e-07
4.6521425e-05,0.0,1.4007092e-06,8.016825e-06,5.9604645e-08,0.0004941821,0.0020555556,0.001875937,0.99991405,7.6293945e-06
0.001061976,2.9802322e-07,0.00023952127,0.99137414,2.9802322e-07,0.0011084378,0.0030918717,1.6093254e-06,0.0019524992,0.00018423796
0.004448533,0.0019007325,0.00021606684,0.0010258257,2.8252602e-05,0.0022295117,0.024727225,1.2278557e-05,0.022319555,0.9743545
0.0,0.0,1.3709068e-06,0.9999997,0.0,0.00061151385,0.0014094114,2.9802322e-08,3.2782555e-07,0.0
0.0008291602,8.583069e-06,1.013279e-06,0.00019648671,2.3245811e-06,0.020297885,0.976787,0.0012863576,0.847291,0.0001538992
0.9953061,5.9604645e-08,0.00020125508,5.6624413e-06,8.940697e-08,0.0039207637,0.0035182834,0.00013121963,0.000279814,0.0111781955
0.9990869,0.0,3.4719706e-05,1.1265278e-05,0.0,0.0016596317,0.0019807816,7.671118e-05,5.143881e-05,0.0004172027
0.11934084,2.5331974e-06,0.00015679002,9.75728e-05,7.4505806e-07,0.0020934045,0.020283252,0.507828,0.25090945,0.01831764
4.7385693e-06,6.0498714e-06,0.0016058087,0.00028294325,1.1920929e-07,0.0012701154,0.99962234,0.28367314,2.3186207e-05,1.6361475e-05
1.835823e-05,5.1259995e-06,5.9515238e-05,0.9996785,5.1885843e-05,0.017275065,0.014685929,2.9802322e-07,0.95739704,3.1590462e-06
0.0017885268,0.022078514,0.1689491,0.0017498732,0.00014135242,0.7873124,0.038031876,5.6624413e-06,0.06504601,0.1642031
0.13954797,2.4229288e-05,0.00024309754,0.00026875734,1.8298626e-05,0.0024026632,0.008298308,3.916025e-05,0.870535,0.06746349
5.1885843e-05,0.049759686,0.12700513,0.0010143816,0.000110924244,0.010350615,0.8587383,1.9907951e-05,0.9188184,0.0038211048
0.04456815,0.0,3.7312508e-05,9.298325e-06,5.364418e-07,0.000936687,0.0010215044,0.9965969,0.0005776286,0.00018149614
0.007987499,0.00021895766,0.0023414493,0.00027546287,2.4199486e-05,0.0020785332,0.004342705,1.14142895e-05,0.9948307,0.008050054
0.9696419,5.662441e-07,0.0012456775,8.633733e-05,1.4305115e-06,0.007958204,0.0037068725,0.013518006,0.00023806095,0.023166329
0.9896847,2.9802322e-08,4.0620565e-05,0.00013360381,1.0728836e-06,0.006121248,0.0019555986,0.00030001998,0.03277096,0.0009495914
0.004160404,1.3113022e-06,0.99558216,0.0005759895,0.000112086535,0.0034448504,0.00631094,0.00013071299,0.19349518,0.00053435564
0.998489,0.0,0.00021255016,2.2411346e-05,4.7683716e-07,0.005035579,0.002916336,0.0004464686,0.0004351139,0.0002693534
0.0005001724,4.172325e-06,1.1354685e-05,0.0001269579,2.1219254e-05,0.0005289912,0.01783809,0.013579577,0.99942034,0.00053313375
0.48381132,2.9802322e-08,1.0728836e-05,4.4047832e-05,3.5762787e-07,0.0019302964,0.0025689006,0.00014361739,0.7156279,0.0024873018
0.9262141,5.930662e-06,0.00023624301,5.722046e-05,1.013279e-06,0.0030525029,0.009701699,0.00036156178,0.0078546405,0.03036806
0.13562194,3.695488e-06,5.8233738e-05,2.9593706e-05,4.172325e-07,0.0012465715,0.011844993,0.00013148785,0.7013831,0.13108167
0.21162742,3.6358833e-06,0.00020083785,0.0001860261,2.5391579e-05,0.0024906397,0.0042066574,4.6908855e-05,0.9230372,0.004339963
4.261732e-06,1.9729137e-05,0.99470544,0.00019538403,9.000301e-05,0.007855684,0.04004395,0.0001604557,0.007050663,0.09301871
0.00022214651,0.0,2.4437904e-05,2.5600195e-05,0.0030633807,0.0012732446,0.0020028055,0.00027909875,0.9994929,2.861023e-06
0.004555106,1.0460615e-05,0.021905065,0.0002847314,0.85512495,0.009180129,0.040542096,0.0011602044,0.060290396,0.0069910884
0.44584918,1.1026859e-06,5.221367e-05,4.413724e-05,1.3411045e-06,0.0026096106,0.002249688,3.221631e-05,0.7739899,0.0045511127
0.00064343214,2.9802322e-07,1.7940998e-05,0.00021198392,3.784895e-06,0.0004824102,0.0019148886,9.298325e-06,0.9993173,0.00018146634
0.99355817,1.7881393e-07,3.373623e-05,3.296137e-05,3.5762787e-07,0.007667035,0.005589783,5.468726e-05,0.009725481,0.0018098056
0.013656199,1.7762184e-05,4.8935413e-05,6.681681e-05,5.9962273e-05,0.002332896,0.0066529512,0.001167655,0.98948383,0.007709533
6.2584877e-07,0.00015607476,0.18040255,4.145503e-05,2.2500753e-05,0.9998388,0.0032932758,6.109476e-06,0.986244,4.529953e-06
0.4882283,0.0,3.963709e-06,1.2844801e-05,2.9802322e-08,0.0037245452,0.0026844442,0.00020888448,0.7067618,0.0024136007
0.8845426,5.9604645e-08,3.0994415e-05,0.00015926361,3.2484531e-06,0.0029305518,0.0010378957,0.00012800097,0.281233,0.00039458275
0.98233986,2.9802322e-08,0.00022289157,0.00039315224,9.030104e-06,0.0071020126,0.0029418468,2.4467707e-05,0.0065115094,0.0010641515
0.00071951747,5.096197e-06,5.0395727e-05,8.389354e-05,3.9041042e-06,0.002782464,0.0035238862,9.956956e-05,0.99891204,0.0012058318
0.00012028217,6.2584877e-07,0.99981284,0.0006428063,6.574392e-05,0.004106134,0.014816344,0.0014184713,0.0015603602,7.8201294e-05
0.9928236,1.1920929e-07,0.00010767579,2.8312206e-05,5.364418e-07,0.0034511983,0.0045096576,0.00012692809,0.0036388636,0.009336412
0.97952205,2.9802322e-08,8.380413e-05,2.7567148e-05,1.0102987e-05,0.009699434,0.003372848,0.00032240152,0.0042363405,0.01047346
0.9960964,0.0,1.4364719e-05,5.5134296e-06,5.9604645e-08,0.0017759204,0.0037668645,0.007619977,5.4240227e-06,3.9964914e-05
1.1920929e-07,0.088312715,0.22939628,0.009937108,0.00013393164,0.98876226,0.023625314,2.7120113e-06,0.99859214,2.0563602e-06
0.9799325,8.940697e-08,0.0007035136,1.8030405e-05,3.1292439e-06,0.008363068,0.0043040514,0.012164116,0.006888002,0.0022259057
7.480383e-06,0.9993901,5.4746866e-05,0.0031217337,6.7949295e-06,0.003595829,0.0006021261,2.8312206e-06,0.99628115,4.634261e-05
0.0,0.9995643,1.2427568e-05,8.940697e-08,5.2034855e-05,0.029923916,0.00071012974,1.9967556e-06,0.084528506,1.218915e-05
0.68345845,6.854534e-07,1.2278557e-05,0.00014489889,3.1292439e-06,0.0053984225,0.0037944615,3.07858e-05,0.5455022,0.0006169081
2.8759241e-05,6.7681074e-05,0.01566267,0.99995095,0.7555363,0.010857999,0.005387336,7.5399876e-06,0.0034752786,0.00013667345
0.9685472,1.4901161e-07,0.004437864,2.655387e-05,1.013279e-06,0.0046593845,0.0075286925,0.0005582571,0.0542849,0.0002824068
0.004447341,2.9802322e-08,4.61936e-06,2.3841858e-06,2.0861626e-07,0.0005989373,0.0053518414,0.00029465556,0.9961407,0.0020091236
8.791685e-05,0.00958541,7.0780516e-05,0.00013718009,8.940697e-08,0.0030776858,0.9983877,0.00034198165,0.0059414506,0.00013679266
4.440546e-06,5.662441e-07,1.6212463e-05,0.99999595,1.6987324e-06,0.0023319721,0.0013104379,2.2947788e-06,1.9073486e-05,2.9802322e-07
1.5199184e-06,1.1026859e-06,5.9604645e-08,2.1755695e-06,5.9604645e-08,0.0011408031,0.9985168,0.012847692,0.00045654178,0.0027616322
0.6148338,2.3841858e-07,0.00013574958,2.2500753e-05,5.9604645e-07,0.0044126213,0.004811704,0.00073844194,0.52975047,0.0009686351
0.684087,2.9802322e-07,0.005166739,1.0639429e-05,2.3841858e-07,0.0069718957,0.0040635765,0.5942085,0.0002542138,0.0052421987
0.0,2.3841858e-06,0.0005953014,1.9222498e-05,4.23193e-06,1.0,1.1950731e-05,3.5762787e-07,0.0001693666,1.5497208e-06
4.9054623e-05,1.4901161e-07,1.3530254e-05,0.00029152632,4.0233135e-06,0.00017550588,0.001293093,5.1766634e-05,0.99978864,4.7653913e-05
8.010864e-05,0.04107237,0.38266617,0.9399885,0.00016564131,0.008772135,0.06677163,1.013279e-06,0.98704374,0.0005480051
0.6614213,1.9967556e-06,2.887845e-05,0.00036150217,1.3113022e-06,0.0036001503,0.0044701397,3.59118e-05,0.24447429,0.080773324
9.739399e-05,0.07966676,0.00018787384,0.0006210208,2.7120113e-06,0.015410036,0.62449896,8.7320805e-06,0.96209186,0.024070323
0.98872113,0.0,5.403161e-05,6.1541796e-05,7.1525574e-07,0.0051696002,0.0029481351,0.00024744868,0.00019583106,0.008586049
0.9782932,0.0,0.000120043755,3.3169985e-05,1.7881393e-07,0.0046711564,0.0015815794,0.025137126,0.0002347529,0.008179635
4.8577785e-06,1.3113022e-06,1.6838312e-05,0.9999684,9.804964e-06,0.0052963495,0.0017104149,2.1457672e-06,0.00013843179,3.5762787e-07
0.99868417,0.0,6.914139e-05,1.9788742e-05,7.748604e-07,0.0060257614,0.0020065308,0.00033792853,0.00020253658,1.6450882e-05
0.08414167,0.0004735589,0.0012111366,4.720688e-05,4.172325e-07,0.002785325,0.008162171,5.3614378e-05,0.6444675,0.6468416
0.019055784,1.7881393e-07,6.03199e-05,3.325939e-05,2.4735928e-06,0.004435897,0.0013432205,0.99186456,0.08652413,0.0024322271
0.0009072721,3.2186508e-06,2.2113323e-05,0.00040253997,4.3809414e-06,0.0013292432,0.0024910867,2.7388334e-05,0.99961007,7.754564e-05
0.00021260977,1.1920929e-07,1.2427568e-05,0.9997977,6.645918e-06,0.0028166175,0.0016347766,2.9802322e-07,0.00043153763,9.298325e-06
5.9604645e-08,0.991382,0.0070661306,0.0006649494,0.95322233,0.009050727,0.00045624375,9.933114e-05,0.0033804476,0.0007775724
0.0022339523,1.5854836e-05,0.00025480986,8.416176e-05,6.824732e-06,0.00043788552,0.0049289465,6.604195e-05,0.003514707,0.9982884
0.00017440319,1.257658e-05,8.1300735e-05,0.99980736,0.00074362755,0.004402399,0.0020385385,1.1473894e-05,0.0002796054,0.00020992756
0.0006710887,2.1338463e-05,0.0011848807,0.9997839,0.0008945763,0.0047845542,0.013283461,1.9967556e-06,0.0020887852,2.9593706e-05
0.004094988,6.765127e-06,3.1381845e-05,0.00024238229,5.364418e-07,0.0013674498,0.005809039,6.592274e-05,0.9976243,0.0014790893
0.63014346,3.516674e-06,0.00012737513,1.3053417e-05,1.758337e-06,0.0051576793,0.008436918,9.286404e-05,0.40046436,0.021921188
0.9941644,0.0,3.5107136e-05,3.3974648e-06,0.0,0.0015379488,0.0012982488,0.0031864643,7.343292e-05,0.0026480556
7.6293945e-06,4.887581e-06,0.00017803907,0.0003171265,2.1517277e-05,0.03842771,0.97144425,0.0040721,0.0011046231,0.011308581
0.1437859,6.7949295e-06,8.4638596e-05,0.000161767,2.95043e-06,0.002378881,0.0045277476,8.404255e-06,0.76637906,0.054819494
0.99440765,5.9604645e-08,3.1739473e-05,5.5223703e-05,7.4505806e-07,0.003580451,0.0026900172,0.00016143918,0.00073343515,0.018875837
0.9976588,0.0,2.3633242e-05,1.3113022e-05,3.2782555e-06,0.0031704605,0.0056654513,2.783537e-05,0.00038290024,1.30832195e-05
6.723404e-05,4.61936e-06,0.0024085343,2.7120113e-05,4.61936e-06,0.0072942674,0.0074633956,0.9519712,0.004198998,0.21477169
0.97942495,1.4901161e-07,0.0006297827,1.6152859e-05,5.066395e-07,0.01817882,0.0032109022,0.0010125637,0.004425198,0.009174228
0.003046751,0.0,1.9729137e-05,6.9737434e-06,5.9604645e-08,0.00018209219,0.00013133883,0.9996729,0.00018325448,3.4958124e-05
0.00010243058,0.00026875734,0.9745917,0.0009121001,0.00013947487,0.0033094287,0.029129803,9.983778e-05,0.993842,0.00024318695
5.6028366e-06,2.9802322e-08,0.99995255,0.00048187375,0.00015512109,0.001096636,0.018614441,0.0015037954,0.17382583,2.3245811e-06
0.9924438,8.6426735e-07,0.035334736,0.00011691451,4.5895576e-06,0.004052967,0.0031608045,0.000105559826,0.00030875206,0.0004593432
0.0,0.0,7.224083e-05,0.0,0.0,1.0,1.1920929e-07,0.0,5.2154064e-06,0.0
0.15811667,2.104044e-05,0.0031793416,4.1782856e-05,0.0,0.00031980872,0.0033591688,0.015362054,6.8336725e-05,0.9247414
0.9955405,0.0,3.9577484e-05,4.297495e-05,4.7683716e-07,0.0045732856,0.0010073185,0.0015597343,0.0007260144,0.0006739497
0.00021931529,0.0006966591,0.71151716,0.0004798174,1.50203705e-05,0.015352219,0.045722276,3.159046e-05,0.06792447,0.22991538
7.301569e-06,5.376339e-05,0.97268736,0.8798871,0.00060915947,0.005805999,0.003095597,0.08300397,8.0257654e-05,0.0016269386
5.9604645e-08,0.77060753,0.00019010901,0.99978423,0.0032112002,0.1290043,0.90110457,1.1920929e-07,0.042650014,1.6391277e-06
3.516674e-06,0.00022339821,0.1043393,0.99970746,0.06177461,0.010160834,0.0110016465,3.5762787e-07,0.27293423,2.8759241e-05
1.5288591e-05,0.0005623698,9.852648e-05,0.00011244416,0.0,0.00066661835,0.022577792,1.6629696e-05,0.0033104122,0.96689093
1.2218952e-06,0.00027659535,0.5746031,0.9901465,4.708767e-06,0.0025671422,0.00037774444,2.2053719e-06,0.00016096234,0.027116746
0.9972662,0.0,0.0004606843,1.6510487e-05,4.7683716e-07,0.0035592318,0.0065144002,0.00052806735,0.0002797544,0.00021663308
0.013653934,2.9802322e-08,0.00040835142,0.0009304583,0.9855485,0.0010046065,0.0017610192,0.0010645986,0.06334159,0.00020948052
2.3841858e-07,0.97129214,4.851818e-05,0.0010286272,8.442998e-05,0.016043276,0.0039901733,2.0861626e-07,0.9993832,6.943941e-06
0.0009238124,6.943941e-06,2.682209e-06,6.183982e-05,1.6093254e-06,0.0034080744,0.0043574274,4.926324e-05,0.9980588,0.002255708
0.94720554,2.9802322e-08,0.00013959408,3.59118e-05,1.7881393e-07,0.0045779645,0.0025759935,0.05376154,0.00015926361,0.019232273
0.98706496,1.4901161e-07,6.574392e-05,0.00010997057,3.6358833e-06,0.0034016669,0.0023679733,6.645918e-05,0.016221851,0.004783213
4.2378902e-05,0.0078003407,0.0023370385,0.99908096,0.000543803,0.0029875338,0.015114844,2.771616e-06,0.9914649,7.662177e-05
0.44581878,2.9206276e-06,0.00032114983,2.9951334e-05,4.172325e-07,0.010721445,0.0063785315,0.0003284514,0.45481756,0.106384546
7.95722e-06,2.2351742e-06,0.9998348,0.21690431,0.00022375584,0.0035877228,0.011831105,0.0004787743,0.011301607,5.64456e-05
0.00011315942,8.255243e-06,0.99857616,0.002363205,1.9013882e-05,0.0023552775,0.0066611767,9.036064e-05,0.23990652,0.0010157228
0.9605124,3.5762787e-07,0.0009499192,4.8428774e-05,1.218915e-05,0.005581826,0.0054617226,0.0002002418,0.019642234,0.011000752
0.0034331381,2.3841858e-07,0.00028300285,0.00017762184,8.85129e-06,0.00033327937,0.0042037964,0.00011622906,0.997971,0.00016856194
0.07316509,0.0006815493,0.664001,0.00018522143,0.000116318464,0.022737682,0.10037395,0.0006189048,0.009694219,0.005140513
8.225441e-06,0.9990176,0.0018186569,0.057542503,0.00624907,0.010995001,0.0016304255,0.00014016032,0.54706633,0.00033214688
0.99380136,8.940697e-08,0.004653573,1.218915e-05,2.0861626e-07,0.0054116547,0.0045814216,0.00010755658,0.0015423,0.003011167
0.9949374,0.0,0.00014081597,2.5808811e-05,1.1920929e-07,0.0030240417,0.0041743517,0.00011000037,0.0018045306,0.0030207634
0.017386079,2.0384789e-05,0.76187634,0.00027772784,0.00011238456,0.004592389,0.013083458,4.6104193e-05,0.91387904,0.00092732906
1.4960766e-05,3.2782555e-06,3.838539e-05,0.9998125,0.00013250113,0.0036656857,0.0033704937,3.5762787e-07,0.9294157,1.7881393e-07
0.36756158,0.0,3.0696392e-06,1.3440847e-05,5.364418e-07,0.0061655045,0.0006919205,6.508827e-05,0.82412136,0.00011959672
0.7132259,0.0,4.5388937e-05,1.1593103e-05,5.9604645e-08,0.0014988184,0.004410833,0.00054323673,0.48877624,0.005066663
6.943941e-06,0.99495244,0.0003605485,0.01801169,0.0001860857,0.021634758,0.0016557276,5.662441e-07,0.96971214,0.0010161102
3.1262636e-05,1.1861324e-05,0.00052925944,0.9999657,0.00095927715,0.0056940913,0.004396081,2.861023e-06,0.00032275915,4.9352646e-05
0.99724567,0.0,0.00014317036,8.821487e-06,0.0,0.0037438571,0.0027832687,0.001118362,6.502867e-05,0.001609385
0.99362266,2.9802322e-08,6.428361e-05,1.180172e-05,5.9604645e-08,0.005590737,0.0020972192,0.00011745095,0.0011674166,0.0007811487
0.9983717,0.0,3.59118e-05,8.493662e-06,0.0,0.0023364723,0.008031726,0.00026902556,3.2752752e-05,0.00025844574
0.019112587,1.5199184e-06,0.000123173,4.5597553e-06,2.9802322e-08,0.0011426806,0.008929461,0.00073450804,0.012184769,0.97213423
0.000112205744,0.9887804,0.001984924,0.0029740334,3.6418438e-05,0.0042508543,0.010165393,2.0444393e-05,0.9977567,0.0010365844
0.0,0.008907497,0.018062145,0.00046914816,1.6093254e-05,0.9999981,0.8201653,3.2782555e-07,0.4467513,6.854534e-07
0.9938618,0.0,1.31726265e-05,1.1831522e-05,1.1920929e-07,0.0045544207,0.0021874309,9.2715025e-05,0.010555416,0.0008673072
1.052022e-05,0.011692941,0.8503526,0.029694438,0.0045104027,0.047673434,0.79702765,0.00029248,0.001409322,0.014538586
0.019678771,0.000765115,0.0036014318,7.3462725e-05,1.7881393e-07,0.0027222037,0.006671995,0.0004182756,0.0007612407,0.9707781
1.7791986e-05,8.940697e-08,0.0034529269,0.0005303323,0.9374856,0.00020191073,0.0017956197,0.0013615787,0.99954253,4.7683716e-07
0.00017794967,9.870529e-05,0.0012610555,6.452203e-05,4.6789646e-06,0.999998,0.013250172,0.00031891465,0.0057215095,0.00019779801
0.9330709,5.2452087e-06,0.0005247593,0.0005698204,1.7404556e-05,0.008942217,0.0058738887,5.978346e-05,0.014637798,0.005255401
0.42115384,0.000551939,0.0014100671,8.404255e-05,1.1920929e-07,0.001534462,0.0037468374,0.0003311336,8.523464e-05,0.775115
9.23872e-07,0.9998615,8.058548e-05,0.00033822656,0.0002400279,0.004071653,6.702542e-05,5.0365925e-06,0.19923899,0.0011892915
0.9981468,0.0,1.9431114e-05,2.3901463e-05,1.1920929e-07,0.0058814883,0.0036667883,6.350875e-05,0.0006030798,0.00014141202
0.0016842186,9.387732e-06,0.0021939576,0.0036239326,8.636713e-05,0.0026073158,0.0039450824,3.054738e-05,0.99768084,0.00014311075
2.488494e-05,0.0009852648,0.00010475516,0.00015097857,2.5182962e-05,0.015155494,0.9877267,7.537007e-05,0.17767963,0.011525482
0.9982687,0.0,1.6242266e-05,8.285046e-06,8.940697e-08,0.0029327571,0.0019973814,0.00015848875,0.00046673417,0.0005520582
0.000926733,2.5242567e-05,0.0029006898,4.6104193e-05,2.7120113e-06,0.99990034,0.00856173,0.00011283159,0.04230097,0.002404064
0.5123132,8.34465e-07,0.81852686,4.762411e-05,5.751848e-06,0.00075927377,0.0017461777,0.030473351,0.0007533133,0.0032117963
0.00015205145,2.592802e-06,0.000100165606,0.99992526,2.2798777e-05,0.014327198,0.008124679,1.4901161e-07,0.007139623,4.3213367e-06
0.049857378,2.861023e-06,0.05764845,0.00016784668,8.046627e-07,0.0005289316,0.0027588308,0.0016441345,0.0020460188,0.92380375
0.5348483,5.9604645e-08,3.1799078e-05,2.1070242e-05,1.4901161e-07,0.0012993515,0.0024839342,0.0008020699,0.6364919,0.00244084
0.41992706,2.1755695e-05,0.00021255016,0.00016885996,3.874302e-06,0.015404582,0.49651074,0.00012275577,0.00029239058,0.004384935
6.210804e-05,3.0100346e-06,2.0503998e-05,0.000295192,5.662441e-07,0.00037765503,0.003753692,6.3568354e-05,0.99985564,9.918213e-05
0.00028452277,0.9903748,0.00015464425,0.00061035156,4.23193e-06,0.007838488,0.002051115,9.298325e-06,0.010341257,0.10324493
0.9975189,0.0,1.5556812e-05,8.8870525e-05,1.1920929e-07,0.00582546,0.001829207,0.00010186434,0.0009122491,0.00014200807
0.022744268,0.03515154,0.0029568374,8.288026e-05,8.046627e-07,0.00289163,0.008350074,6.991625e-05,0.7963493,0.4536646
0.9992452,0.0,5.662441e-07,5.3346157e-06,8.940697e-08,0.0021778643,0.0008598268,0.00023323298,0.00025963783,2.1338463e-05
0.036180347,1.9669533e-06,0.9840017,1.1473894e-05,0.00045487285,0.004737258,0.0030746162,0.00057399273,0.0009095073,0.0011627674
0.917148,8.940697e-08,9.5427036e-05,0.00037065148,0.02485323,0.0036644936,0.0042665303,0.000106304884,0.0003219247,0.003005296
0.99702024,8.940697e-08,0.00012537837,2.4944544e-05,5.9604645e-07,0.0044968724,0.0070669055,0.0018279254,0.00041663647,0.0020413995
0.005374551,0.0001193285,0.0002296567,0.0022874475,5.4866076e-05,0.057488233,0.9245017,0.0024835765,0.0025071204,0.055220783
0.90410864,5.364418e-07,0.38510284,7.104874e-05,6.738305e-05,0.008920521,0.0030581653,0.0007132888,0.0009908676,0.0014448166
0.69472307,0.0,2.142787e-05,4.887581e-06,0.0,0.0002399385,0.0021790564,0.7732188,2.1129847e-05,0.00032043457
1.5199184e-06,5.841255e-06,3.9428473e-05,0.00073873997,3.4570694e-06,0.9968382,0.0048957765,8.791685e-06,0.99912804,2.413988e-06
2.9802322e-08,5.9604645e-08,7.227063e-05,0.99999994,0.00088724494,0.00067666173,0.0023986697,2.9802322e-08,2.3841858e-07,0.0
0.012418747,3.1083822e-05,6.553531e-05,1.6719103e-05,6.2584877e-07,0.0024178028,0.011011928,8.267164e-05,0.9893959,0.012604505
0.9943467,5.9604645e-08,0.00020894408,1.5199184e-05,5.9604645e-08,0.0062747896,0.0020429194,0.000108122826,0.003934413,0.0054233074
7.402897e-05,0.00014543533,0.97868747,0.0024095476,0.26344436,0.014331073,0.11184579,6.702542e-05,0.005727917,0.00076681376
0.0,0.00023046136,0.99334794,0.9997927,0.0002733171,0.013051957,0.9418187,1.6987324e-06,8.8483095e-05,1.1026859e-06
0.997854,0.0,5.6535006e-05,2.2023916e-05,4.172325e-07,0.0049342215,0.0031135082,0.00017234683,0.0007994473,0.0019178987
0.0004363954,0.0013562739,0.031117767,0.00019261241,3.4213066e-05,0.00036993623,0.005758524,0.0010439456,0.9988228,0.0003440678
1.30832195e-05,0.00011634827,8.940697e-06,3.8981438e-05,8.940697e-08,0.04206273,0.9993002,0.000590235,6.79791e-05,0.00052440166
0.00090935826,0.0005054474,0.9860468,0.008356154,0.0007737577,0.010021985,0.04673457,4.0620565e-05,0.12957433,0.013457298
0.00099051,0.0,9.536743e-06,8.59797e-05,0.00020423532,0.00038674474,0.0009405911,9.0807676e-05,0.9993011,2.6226044e-06
1.847744e-06,0.9589224,0.002040863,0.0049888194,0.008894473,0.9403212,0.05557388,1.2457371e-05,0.06133735,0.0010474324
0.0005647242,0.00033128262,0.00019985437,0.99817896,0.0022636354,0.0060127676,0.010021448,3.516674e-05,0.001042217,0.007460028
0.0,0.9998504,3.46601e-05,0.9982989,0.001584202,0.011723846,0.0004030168,4.172325e-07,0.07463202,1.3113022e-06
0.86766803,1.2516975e-06,0.00016251206,0.00029662251,6.7055225e-06,0.0105706155,0.0018499792,0.019816011,0.37577692,0.0075243413
0.0015914142,1.0579824e-05,0.0005156398,1.347065e-05,6.854534e-07,0.9998263,0.02019003,0.0009498298,0.00814113,0.00015863776
0.994202,1.1920929e-07,9.101629e-05,5.5372715e-05,3.3676624e-06,0.004295528,0.0013816953,0.0007236302,0.0017025471,0.005211413
0.0,0.00032311678,0.9973468,0.00487414,9.727478e-05,0.99980754,0.007896215,1.6659498e-05,0.012298226,5.5730343e-06
0.023677498,0.0,7.748604e-07,4.1931868e-05,4.7683716e-07,0.010019571,0.0013666153,0.0013830066,0.97972214,6.3449144e-05
1.6987324e-06,3.7252903e-06,0.002642244,0.9997838,0.3626634,0.0027303994,0.0032554865,3.7759542e-05,2.515316e-05,0.0007727742
0.00033682585,2.8073788e-05,0.0001616478,0.0005991757,1.4066696e-05,0.0012816191,0.005202174,1.809001e-05,0.9997809,9.435415e-05
0.97588694,1.7881393e-07,0.00012561679,0.00018399954,2.503395e-06,0.008147001,0.0043611526,0.0005258024,0.0027079284,0.06123975
8.371472e-05,8.940697e-08,0.00011819601,0.99995816,0.0022059083,0.005676836,0.0041128993,4.23193e-06,0.0032444,1.5199184e-06
0.98087144,0.0,9.474158e-05,3.3408403e-05,5.662441e-07,0.005757898,0.0019099116,2.7388334e-05,0.018121898,0.016922027
0.0,0.0,0.0,9.572506e-05,0.0,0.0,5.9604645e-08,0.0,0.0,1.0
0.0,2.9802322e-07,3.5762787e-07,0.99999475,2.0861626e-07,0.00093758106,0.99799633,5.9604645e-08,1.2516975e-06,0.0
0.0,7.390976e-06,0.006742716,1.5169382e-05,0.025022268,1.0,4.351139e-06,1.4305115e-06,4.0203333e-05,2.9802322e-08
0.99537027,0.0,0.00016582012,0.0002924502,4.7683716e-07,0.0073102117,0.0067708194,4.452467e-05,0.00018250942,0.0014030337
0.0,0.0,0.0,8.940697e-08,0.0,0.9991008,0.0,0.0,2.2351742e-06,0.99989665
0.015961915,8.6426735e-07,2.1845102e-05,0.0018879473,5.2928925e-05,0.0015270412,0.0062476993,0.00048336387,0.9933462,8.034706e-05
0.0009807348,8.273125e-05,5.00381e-05,0.00017356873,3.8146973e-06,0.002664864,0.01305446,1.8715858e-05,0.9993664,0.00157094
0.123197496,4.887581e-06,0.00011268258,4.172325e-05,8.6426735e-07,0.0038090646,0.008091152,9.089708e-05,0.95912135,0.0028177202
1.9073486e-06,0.001983583,4.5359135e-05,3.695488e-06,0.00015339255,0.043666154,0.99157196,0.00023633242,0.00011104345,3.7401915e-05
0.14003834,2.3841858e-07,0.00015586615,4.029274e-05,3.33786e-06,0.040764987,0.011151195,0.24586144,0.020773321,0.024989873
0.025647223,0.0008289218,0.89198893,0.00046622753,1.9699335e-05,0.0030276775,0.0033528209,0.011529267,0.00063440204,0.029252738
0.0012785792,5.453825e-06,3.71933e-05,0.0005005598,7.033348e-06,0.0032587051,0.0047447085,2.0563602e-05,0.99900424,0.0008880794
8.314848e-06,0.99809957,7.143617e-05,0.00027033687,7.31647e-05,0.018392414,0.0006855726,0.002916485,0.0009126961,0.0038512945
0.0002477467,0.021254867,0.04156542,0.9957452,0.007333219,0.06721488,0.04663232,3.8444996e-06,0.31297237,0.0043519437
0.011528403,0.0027198792,0.0045640767,0.00044107437,6.2584877e-07,0.0023795962,0.0029748976,1.7642975e-05,0.022381604,0.9778242
0.039028466,0.0,0.0004066229,1.4901161e-06,1.4901161e-07,0.0006838143,0.0014566183,0.99851304,4.196167e-05,8.299947e-05
8.940697e-07,2.0861626e-07,4.979968e-05,0.99998564,0.00787425,0.017627388,0.0027070045,1.1920929e-07,0.3164466,9.23872e-07
0.94329846,1.6391277e-06,0.0013788044,2.5600195e-05,7.4505806e-07,0.004038781,0.0065852404,0.00088483095,0.047707528,0.025996834
0.99114764,2.9802322e-08,0.0007996559,1.2278557e-05,5.9604645e-08,0.004556924,0.0046463013,0.00025612116,0.0031446218,0.004308462
0.99548066,0.0,2.8759241e-05,1.7762184e-05,2.9802322e-08,0.012264222,0.0011296868,0.00031384826,0.001217246,0.000305295
0.90455484,0.0,2.6404858e-05,4.172325e-06,1.1920929e-07,0.010474563,0.0025270581,0.00033727288,0.10616031,0.004580319
8.940697e-08,4.7683716e-07,0.86070406,0.0012008846,0.9855476,0.062584996,0.022097737,0.00012901425,0.9988174,0.0
0.00012937188,4.2915344e-06,0.00037705898,2.1487474e-05,1.0728836e-06,0.9999957,0.00300169,0.014874011,0.008744031,8.1419945e-05
0.9873837,4.7683716e-07,0.00011792779,4.8041344e-05,9.834766e-07,0.005429685,0.0037630498,9.846687e-05,0.001656115,0.030310005
0.85556066,1.0728836e-06,5.981326e-05,0.000112861395,1.013279e-06,0.0028084815,0.00395599,0.00095427036,0.00048729777,0.4487239
0.9980923,5.9604645e-08,6.6161156e-05,4.4703484e-06,0.0,0.005623549,0.003720969,0.00033399463,6.2823296e-05,0.0012178719
0.0025044978,0.00023144484,8.85427e-05,0.00036495924,2.4437904e-06,0.00059860945,0.01073274,1.1622906e-06,0.028757513,0.9866967
0.0017602146,0.034000456,0.16137132,0.00084009767,1.8507242e-05,0.010718942,0.07299474,5.2779913e-05,0.99443877,0.0010840595
0.0035487711,0.006029576,0.80041003,0.0018994808,2.592802e-06,0.009087563,0.0010210872,4.529953e-05,0.01245895,0.13438791
0.0036155283,0.00057178736,0.000111699104,7.146597e-05,5.751848e-06,0.015726388,0.7710607,0.00015679002,0.5496422,0.007181406
0.0006404221,1.1920929e-07,6.425381e-05,0.0001256764,0.052079886,0.99880314,0.0059236884,0.0022774935,0.0013944805,1.2934208e-05
0.4012624,8.8095665e-05,0.00023758411,0.0015732944,1.2516975e-06,0.0049097836,0.008630902,0.013743401,0.016129643,0.49716547
0.0010213554,3.2484531e-06,0.00011229515,0.99977016,4.196167e-05,0.017377973,0.008388698,5.066395e-07,0.004242152,3.784895e-06
1.180172e-05,1.3411045e-06,0.004633844,0.00093844533,0.008938998,0.00032544136,0.014261812,0.0009434819,0.999359,8.672476e-06
0.99664557,5.9604645e-08,0.00014942884,2.0503998e-05,2.9802322e-08,0.004689336,0.0022061467,2.4169683e-05,0.002961576,0.004314661
0.92426735,0.0,0.00034829974,0.00013464689,0.0,0.0015234053,0.00026863813,0.04682365,0.0031081736,0.0025157928
0.9698578,1.1324883e-06,0.00024199486,0.00013941526,3.1292439e-06,0.0060367584,0.007314801,2.69413e-05,0.030709893,0.003071189
0.0006841421,1.4901161e-06,1.3977289e-05,0.00011432171,2.965331e-05,0.0012969673,0.004648328,0.00012859702,0.9996016,0.00022473931
8.7052584e-05,0.9896226,9.661913e-05,0.0146540105,0.00018256903,0.0046839714,0.013122469,1.2457371e-05,0.99823827,3.5315752e-05
0.99676436,1.1622906e-06,0.0003234446,3.284216e-05,0.0,0.0029915571,0.0024710894,2.8640032e-05,0.00033521652,0.0056067407
0.49827778,3.2186508e-06,0.6375674,0.00056400895,0.00021627545,0.00434041,0.0037878752,0.00014811754,0.065836936,0.0009861887
1.847744e-06,0.0014633536,2.0742416e-05,0.9990288,6.017089e-05,0.0407975,0.4805942,4.7683716e-07,0.9002775,2.092123e-05
0.9521838,0.0,8.389354e-05,1.9788742e-05,8.046627e-07,0.00412181,0.002522409,0.17984983,0.00036805868,0.0012092292
3.129244e-05,1.9669533e-06,0.99967074,0.003918767,0.0007250905,0.0066661537,0.016351998,3.066659e-05,0.10621515,0.0005145073
0.006385565,0.0014740229,0.010878116,0.0007585883,1.12354755e-05,0.026521772,0.90948045,0.00026506186,0.11058536,0.01125738
3.144145e-05,0.000302732,0.00037419796,0.00012212992,1.7881393e-07,0.0012717843,0.0029048026,5.9068203e-05,0.017555177,0.9877561
0.98995614,2.0861626e-07,0.00011792779,3.3020973e-05,6.854534e-07,0.00665009,0.0056580007,6.005168e-05,0.0025500655,0.008872867
0.099751174,1.180172e-05,0.016938895,3.0249357e-05,1.6093254e-06,0.910421,0.018298298,0.002662629,0.0007574558,0.0015788376
1.1920929e-07,0.99972665,2.0354986e-05,0.99956155,4.708767e-06,0.026416749,0.00069367886,0.0,0.9598261,2.682209e-07
1.6391277e-06,0.00050896406,0.0001873672,0.0002555549,2.3841858e-07,0.99157095,0.9910159,3.516674e-06,0.0039918423,0.0004644096
0.00038427114,1.1920929e-06,0.95353085,0.00025087595,0.00019264221,0.0032895803,0.0070769787,0.9857474,0.0011847615,0.00096416473
0.000110566616,4.172325e-07,7.203221e-05,2.8342009e-05,2.4735928e-06,0.00414297,0.0069814622,0.022218645,0.9926574,0.0008751452
9.468198e-05,0.99698687,0.0001617074,0.00093981624,2.5808811e-05,0.010923147,0.005077958,2.259016e-05,0.045444638,0.02344817
2.3841858e-06,0.00041222572,0.97558033,0.9981247,0.0015916824,0.0025060177,0.016257465,1.4603138e-06,0.95956767,1.1920929e-06
0.00074127316,1.66893e-06,4.3332577e-05,5.5283308e-05,5.3048134e-06,0.0018258691,0.0036876202,0.019096702,0.99816626,0.0008083284
8.940697e-08,0.00039684772,0.015741378,0.9996817,0.95235753,0.996788,0.020588994,1.8179417e-06,0.0007467866,1.2040138e-05
0.9626249,7.6293945e-06,0.0017108619,4.786253e-05,4.7683716e-07,0.002665192,0.0024275482,0.00015577674,0.0009999275,0.070299715
0.99869335,0.0,9.3728304e-05,3.8653612e-05,1.8179417e-06,0.010646105,0.0061281323,0.00030261278,0.00028198957,0.000100165606
2.4139881e-05,0.00017467141,0.2237804,0.00013872981,1.296401e-05,0.99802995,0.011011213,0.0003659129,0.0024919212,0.0018180907
0.53613603,0.0,0.00029224157,3.33786e-06,2.9802322e-08,0.0003298819,0.00081169605,0.88663125,1.0311604e-05,0.00017529726
0.0,2.3841858e-07,0.001172632,1.6391277e-06,5.9604645e-08,1.0,1.2427568e-05,4.172325e-07,0.021731466,0.0
0.08687687,1.1622906e-06,0.00035613775,4.348159e-05,1.6391277e-06,0.99682426,0.0028198063,7.036328e-05,0.009902865,0.0011042058
2.9802322e-08,3.4570694e-06,0.0025948286,6.189942e-05,5.313754e-05,1.0,0.0011628866,1.7285347e-06,0.0032919943,1.847744e-06
0.0007173121,5.990267e-06,0.00048577785,3.07858e-05,5.9604645e-08,0.0013716221,0.008943409,0.000610888,0.05359772,0.9673321
4.23193e-06,4.7683716e-07,0.9998517,0.0035083592,0.00022503734,0.0014906228,0.013302535,0.014679283,0.0004464686,0.00034818053
8.940697e-08,3.5762787e-07,1.2427568e-05,0.99999356,5.066395e-07,0.0004272163,0.0002553463,1.1622906e-06,1.5199184e-06,6.2584877e-07
0.31392425,3.9041042e-06,0.0017489493,0.00013786554,0.0002744496,0.0059962273,0.0072540343,9.089708e-05,0.528834,0.007516116
0.9987043,0.0,1.4990568e-05,1.9997358e-05,8.940697e-08,0.0032327771,0.0012560189,0.0001719892,0.00026643276,0.0003438294
0.00018385053,4.261732e-06,0.00018668175,0.00019904971,5.096197e-06,0.9989937,0.1443961,0.00016072392,0.00046116114,0.0021333992
0.0066356063,1.3381243e-05,0.00047954917,6.4611435e-05,1.1622906e-06,0.039779067,0.80076563,0.0008944273,0.06997219,0.0061410666
0.0,0.0,0.99924344,0.00039845705,0.00019776821,0.0004490018,0.016315788,0.0003659129,0.020749182,1.5795231e-06
0.53181267,5.662441e-07,0.0002194643,3.46303e-05,3.4868717e-06,0.67779434,0.010182619,0.00057801604,0.004371673,0.0012593269
0.9617696,8.940697e-08,3.6746264e-05,0.00011962652,2.4735928e-06,0.0034252703,0.0025991201,2.9057264e-05,0.026150942,0.002165854
0.492606,0.00038820505,0.00085788965,2.6851892e-05,2.9802322e-08,0.001993537,0.0031618178,9.23574e-05,0.0022182167,0.7074518
0.00019484758,4.5716763e-05,0.00015613437,6.645918e-05,2.5331974e-06,0.9274095,0.011636734,0.001866579,0.74438864,0.00428617
0.060605615,2.7120113e-06,0.0012628138,3.3974648e-06,1.7344952e-05,0.004177183,0.02329129,0.8873789,0.0018801987,0.0072262287
0.0065284073,1.1593103e-05,2.3126602e-05,0.0005925298,3.33786e-06,0.7006926,0.026107669,5.8352947e-05,0.4046185,0.010391325
0.98861384,0.0,5.7518482e-05,3.9577484e-05,0.0,0.0007650852,0.000585109,0.006289929,1.6093254e-05,0.0019444227
0.8792635,0.0,2.5719404e-05,0.0029997826,2.2351742e-06,0.0017215312,0.00057438016,7.814169e-05,0.2889065,0.00014746189
1.013279e-06,0.0006185174,0.973497,0.0009570718,7.688999e-06,0.99674046,0.0035440624,6.7949295e-06,0.0035702586,2.655387e-05
0.9835358,4.4703484e-07,0.0011381209,7.0512295e-05,5.3942204e-06,0.011586964,0.0069562495,0.000733912,0.008968383,0.0049262345
0.0,0.0002784431,0.00019952655,0.9999763,0.0011716187,0.039030373,0.9750955,2.9802322e-08,0.00024089217,7.4505806e-07
0.90269136,1.4901161e-07,2.7000904e-05,4.827976e-06,5.9604645e-08,0.00748387,0.004213333,0.031758875,0.00044986606,0.063871026
4.017353e-05,3.5703182e-05,0.00010535121,0.9997692,0.00023642182,0.012516767,0.002772957,7.4505806e-07,0.0015447438,0.00014925003
0.988559,2.9802322e-07,0.00076425076,6.2167645e-05,2.3841858e-07,0.002214104,0.0019817352,8.2165e-05,0.021293372,0.00537163
0.00077715516,1.9282103e-05,4.9889088e-05,9.0420246e-05,9.23872e-07,0.003463626,0.011894405,0.00019052625,0.9919051,0.005372882
8.940697e-08,0.009693295,0.0062211156,0.0002898872,1.013279e-06,1.0,0.005807966,1.4960766e-05,0.00023251772,4.4733286e-05
3.167987e-05,7.036328e-05,0.0016260743,0.99926686,0.0016242266,0.009491891,0.021982044,0.00012037158,0.00018426776,0.0002708435
0.9956784,0.0,9.0152025e-05,2.6643276e-05,4.172325e-07,0.008346289,0.009519964,5.9992075e-05,0.0014263391,0.0012859404
1.475215e-05,8.940697e-08,2.4437904e-06,0.00014865398,1.3709068e-06,0.00022500753,0.0018844903,1.23381615e-05,0.9999642,1.6987324e-06
0.0069646537,1.4901161e-07,0.9968495,0.00018328428,9.301305e-05,0.010553777,0.0153129995,0.0025173128,0.0032341182,2.1606684e-05
0.00040489435,0.99860024,0.0003118813,0.00024446845,3.0368567e-05,0.00473845,0.00030648708,6.0796738e-06,0.0038135946,0.0011174679
0.99800265,0.0,8.08537e-05,2.002716e-05,2.3841858e-07,0.0049815476,0.0045273304,0.00020101666,0.0008594394,0.0007968247
0.0024706423,2.2947788e-05,0.00019139051,9.745359e-06,2.9802322e-08,0.0005122721,0.0060044527,3.1262636e-05,0.99640054,0.0026928484
0.95599407,8.940697e-08,0.00012946129,1.04010105e-05,2.1070242e-05,0.005736828,0.0072636902,0.0017742515,0.0085012615,0.0010170937
8.940697e-08,0.0019646287,0.977566,0.23626533,0.00086706877,0.06338605,0.95487165,8.046627e-07,0.99316156,5.364418e-07
0.025913954,1.7881393e-07,1.8388033e-05,0.00052818656,9.208918e-06,0.0011125505,0.0023832023,0.0013868809,0.9879049,0.0003078878
0.9938727,8.940697e-08,4.8071146e-05,1.9311905e-05,1.5795231e-06,0.0051114857,0.0042913556,9.268522e-05,0.00038841367,0.013024062
0.9482087,0.0,6.16312e-05,1.3023615e-05,8.940697e-08,0.00141415,0.0011204481,0.17280313,0.00011715293,0.0014065504
0.78088194,0.0,5.8233738e-05,5.1170588e-05,3.874302e-07,0.034020096,0.3073799,0.0004195273,0.0038651228,5.1796436e-05
0.69013476,3.927946e-05,0.00027242303,0.00010704994,2.592802e-06,0.0075863004,0.0047362745,5.7160854e-05,0.5563731,0.026729167
0.8862258,2.682209e-07,0.0005021095,2.3812056e-05,2.682209e-07,0.0021129847,0.002097845,1.9133091e-05,0.2021774,0.014723003
0.0002245903,0.0,1.5199184e-06,4.3660402e-05,2.3841858e-07,0.0012633204,0.0020929873,2.5510788e-05,0.99908507,6.556511e-05
0.861109,2.9802322e-08,0.00079986453,0.00011873245,6.4373016e-05,0.0011957884,0.0031287074,0.0006611645,0.0010296404,0.02249363
0.0004014969,5.1289797e-05,0.020256251,0.00045901537,0.0002195239,0.0008497238,0.030780345,0.0010706484,0.9989278,0.00047531724
0.0,0.0,0.000107586384,0.9999465,0.99997365,0.000528723,0.00046813488,5.9604645e-08,0.008848041,0.0
0.9340747,0.0,4.1127205e-06,4.23193e-06,5.7309866e-05,0.00602594,0.0053673685,0.0015057623,0.015752822,0.003049761
0.7700777,1.4305115e-06,0.018506736,5.5104494e-05,5.9604645e-08,0.0028657615,0.0061466396,0.0003042817,0.11076146,0.025250077
0.82801473,0.0,0.0003066361,1.4364719e-05,8.6426735e-07,0.006938368,0.004247576,0.0033526123,0.13471356,0.00075110793
1.4901161e-06,4.172325e-07,9.834766e-07,3.8832426e-05,0.0,0.00564602,0.99999714,1.835823e-05,8.5920095e-05,6.7055225e-06
0.00032514334,3.2782555e-07,0.00018975139,0.00012686849,2.771616e-06,0.008062631,0.00819087,0.76259285,0.001740694,0.051137954
5.9604645e-08,0.0003092289,0.0016396344,0.9999362,0.001712501,0.028788835,0.010377407,2.1994114e-05,6.237626e-05,0.00010454655
6.368756e-05,0.00014275312,6.41346e-05,0.000112593174,9.23872e-07,0.872677,0.8981086,4.3541193e-05,0.0348323,0.0005966127
9.23872e-07,1.4066696e-05,0.0005440414,0.00082597136,0.045592666,0.019317508,0.95760834,0.000341475,0.9911551,1.7285347e-06
3.787875e-05,1.7881393e-06,0.9994003,0.00021311641,0.00021117926,0.0024923384,0.01686871,3.349781e-05,0.41081077,0.0006799996
0.0003142357,2.9802322e-08,3.784895e-06,4.6759844e-05,4.7683716e-07,0.00024339557,0.0007904172,0.00010097027,0.999717,2.9534101e-05
0.9936757,0.0,0.000100791454,1.692772e-05,4.172325e-07,0.008850932,0.0033580065,0.0042146444,0.00080674887,0.00086668134
0.97491515,8.940697e-08,0.00011244416,4.503131e-05,8.940697e-07,0.0035730898,0.0025786161,8.150935e-05,0.00061425567,0.07447663
0.000223279,0.0,3.0994415e-06,0.99995387,9.357929e-06,0.0003773868,0.00084626675,9.298325e-06,6.765127e-06,1.6510487e-05
0.00011050701,7.0631504e-06,0.0002374053,0.9999542,4.0620565e-05,0.004961312,0.004381925,1.2516975e-06,8.380413e-05,8.493662e-06
0.001329422,5.9604645e-08,0.00024721026,7.1823597e-06,3.5762787e-07,0.0006789565,0.0033447146,0.00023880601,0.9951221,2.2292137e-05
0.98446095,2.9802322e-07,0.00017869473,5.8799982e-05,6.2584877e-07,0.002676934,0.006854832,0.00012487173,0.0019064248,0.016800344
0.98006296,2.3841858e-07,0.0009331107,3.9041042e-05,6.854534e-07,0.008461744,0.008522332,0.0003593564,0.008692354,0.0031974912
0.06001532,8.994341e-05,0.00014832616,0.00011590123,1.66893e-06,0.011929542,0.45312306,9.247661e-05,0.024600506,0.0111270845
1.5199184e-05,4.976988e-06,0.00019553304,4.6104193e-05,1.8686056e-05,0.0356946,0.9765899,0.0998081,0.00054967403,0.00038325787
0.8996153,5.066395e-07,0.00014731288,0.00019210577,2.592802e-06,0.013153076,0.0015157759,0.00054621696,0.09425625,0.01658383
0.22373378,1.1861324e-05,0.0005926788,8.1032515e-05,1.5795231e-06,0.0092562735,0.46226883,5.8978796e-05,0.013825506,0.004088491
0.0021171272,0.00025251508,0.0010358989,0.00095793605,3.20673e-05,0.008133292,0.019582331,0.0003797412,0.8463166,0.14430681
0.8348398,2.682209e-07,0.0001527965,3.0040741e-05,2.9802322e-07,0.007869512,0.0017291605,0.00094366074,0.14113736,0.069595695
0.00054591894,8.9883804e-05,0.0001539886,0.0026593804,2.3305416e-05,0.002083391,0.00631243,3.552437e-05,0.9994985,0.0011043847
5.990267e-06,0.9990207,0.00014391541,0.0048974752,6.312132e-05,0.004505098,0.002134353,6.28829e-06,0.99815965,0.00010356307
0.003011793,4.2766333e-05,4.014373e-05,2.1785498e-05,4.172325e-07,0.0019964278,0.009702027,0.000113368034,0.9962084,0.019193351
7.3730946e-05,5.9604645e-08,0.99953365,2.7239323e-05,1.2367964e-05,0.0048255622,0.01153475,0.00019863248,0.41717196,9.804964e-06
4.374981e-05,0.9970404,0.00080633163,0.30693725,0.0009983182,0.008172154,0.00096711516,4.181266e-05,0.01578483,0.006386608
0.06258917,6.2584877e-07,2.771616e-05,5.6147575e-05,1.2516975e-06,0.00074774027,0.00341779,4.7534704e-05,0.9785478,0.0013683736
3.8444996e-06,0.99484086,4.5359135e-05,0.0007736683,4.261732e-05,0.016046137,0.0062294304,3.1590462e-06,0.9890228,0.0004222691
0.0004788041,0.97199595,0.0010718703,0.013422877,1.3977289e-05,0.009724319,0.03318107,2.554059e-05,0.4958696,0.0056067705
0.00070655346,0.88627756,0.018820316,0.002352208,0.0004131496,0.008874118,0.0031924844,0.00040993094,0.012293041,0.1764592
0.0,1.7881393e-06,0.0031429231,1.6748905e-05,1.66893e-06,1.0,0.00021508336,4.4703484e-07,0.017614067,5.9604645e-08
5.066395e-07,0.99046457,0.0020879805,0.006172478,0.000821054,0.022701949,0.005099237,0.0014449656,0.0025212467,0.0005759895
5.3346157e-06,2.413988e-06,0.9974718,0.00010126829,9.953976e-06,0.0010401607,0.00818342,0.0006917715,0.7973438,0.00014582276
0.4965571,7.349253e-05,0.0005029142,7.522106e-05,1.1920929e-07,0.001283735,0.0027794838,0.0006710291,9.6440315e-05,0.87752557
3.2484531e-06,0.00079625845,0.013356984,0.91497695,0.02408576,0.99998975,0.018805891,1.1712313e-05,0.006924808,0.00011703372
0.96565944,5.9604645e-08,0.0001206398,0.000119149685,0.00022286177,0.010455728,0.008052677,0.00018784404,0.008212835,0.0027185082
5.364418e-07,0.0004849732,0.00046992302,0.9997113,0.00016584992,0.46419826,0.70397526,1.4901161e-07,0.09455863,8.940697e-08
0.24635571,5.9604645e-08,0.00050371885,4.5716763e-05,1.2814999e-05,0.0010102391,0.00036796927,0.9635884,0.0003630817,0.0019964278
0.9837227,0.0,9.006262e-05,3.0726194e-05,1.7881393e-07,0.0025510192,0.0015414655,0.013985336,0.0016964972,0.0010864735
0.9611747,0.0,0.0057207644,5.2928925e-05,4.4703484e-07,0.0068372786,0.011080146,0.0027106404,0.0013999939,0.015149385
0.9979234,0.0,0.0001398921,3.144145e-05,1.3113022e-06,0.0045739114,0.004150033,0.0003119707,0.00054478645,0.0005906522
0.0025044978,0.00023144484,8.85427e-05,0.00036495924,2.4437904e-06,0.00059860945,0.01073274,1.1622906e-06,0.028757513,0.9866967
0.033201188,1.1920929e-07,8.016825e-06,3.0696392e-06,2.0861626e-07,0.005524844,0.027370512,0.18884009,0.116163194,0.026268959
0.00010448694,3.3676624e-06,0.00020289421,0.00058448315,0.00042495131,0.0010697544,0.0022096634,2.1517277e-05,0.9998766,1.0073185e-05
2.4706125e-05,0.0001732409,0.0022864044,0.9977046,0.038117975,0.005857706,0.06147501,5.3226948e-05,0.008209258,0.004925877
0.042003125,6.8843365e-06,0.0007762015,1.680851e-05,0.0002925098,0.0068161488,0.012103766,0.026575744,0.5606637,0.045884103
3.874302e-07,0.020962983,0.0034690201,0.9996245,0.0003861785,0.017983586,0.017686874,8.016825e-06,0.09184313,0.000119775534
0.001441747,2.2351742e-06,7.4118376e-05,0.0003209412,5.1617622e-05,0.0005272329,0.0075897574,0.0014924109,0.99903166,0.0005925596
0.98776555,8.940697e-08,3.4451485e-05,2.2768974e-05,1.4901161e-07,0.007859081,0.0019316375,0.0001180768,0.017648518,0.003697127
0.12605602,0.0,0.00038030744,3.6358833e-05,9.62615e-06,0.02269733,0.45421648,0.00040742755,0.00018045306,3.9607286e-05
0.97430384,2.503395e-06,0.00038021803,0.00031596422,1.4305115e-06,0.005542159,0.002619326,0.0029905438,0.00016364455,0.031562537
0.0,0.00044730306,0.0007084608,0.9996309,0.89920795,0.99978507,0.8849935,5.9604645e-08,0.0013586283,0.0
0.08908397,0.00012129545,0.09933686,0.00022828579,1.4603138e-06,0.006095648,0.0036982,0.0042999685,0.0062847733,0.7153042
1.1086464e-05,2.9802322e-08,1.1086464e-05,0.9999819,1.4901161e-07,0.00011974573,0.0006441474,1.4603138e-06,1.2218952e-06,1.1742115e-05
0.0009266138,2.0861626e-07,5.9604645e-06,3.6656857e-05,0.0,0.03843823,0.9974396,0.0012157261,0.0005376339,8.1032515e-05
0.018195122,0.0,4.0620565e-05,1.5497208e-06,2.9802322e-08,0.00031358004,0.0006518066,0.999218,1.2665987e-05,0.00029429793
0.00051164627,6.2584877e-07,0.00020036101,0.99901694,0.00018414855,0.009090841,0.004084915,1.7881393e-07,0.008575559,3.695488e-06
1.2814999e-06,0.9999062,9.655952e-06,9.9897385e-05,3.0994415e-05,0.0042649508,5.38826e-05,4.3809414e-06,0.8139411,4.3958426e-05
0.00078329444,1.5199184e-06,3.0517578e-05,0.00010240078,0.0,7.8588724e-05,0.0019755065,0.00030827522,1.7017126e-05,0.99997735
0.0002182424,3.695488e-06,8.738041e-05,5.7965517e-05,0.0,0.00056630373,0.004862517,0.0006854832,0.008928806,0.9965149
0.8646693,7.748604e-07,0.00011155009,5.301833e-05,7.5101852e-06,0.0043210685,0.0039673448,9.959936e-05,0.31847984,0.004191011
0.0021858215,8.404255e-06,0.00043037534,0.00012201071,6.8843365e-06,0.9999764,0.004645258,3.5107136e-05,0.012529105,0.000977248
0.0,1.013279e-06,0.0001873374,0.9999977,0.974117,0.00067842007,0.0008151233,3.5762787e-07,0.0006926954,1.9967556e-06
0.0026226342,0.0,2.682209e-06,7.1525574e-07,0.0,8.136034e-05,0.00038954616,0.9999156,6.1690807e-06,9.676814e-05
0.0004464388,3.5762787e-07,2.3841858e-06,8.85129e-06,5.9604645e-08,0.0018295348,0.004062742,0.0001142323,0.9995347,0.00025340915
0.98938894,0.0,0.00027039647,1.1771917e-05,0.0,0.0013038516,0.0015994012,0.0018216968,9.530783e-05,0.0038681626
0.048915803,2.682209e-07,0.00012683868,0.00028914213,1.2695789e-05,0.002101332,0.0017901063,0.8282236,0.05256185,0.06307262
4.0352345e-05,1.1920929e-07,0.9999044,0.0019033551,0.00090643764,0.0037933886,0.013604015,5.593896e-05,0.01358518,0.000117242336
5.3673983e-05,2.7120113e-06,0.00018501282,0.00018334389,2.8908253e-06,0.00033277273,0.0037381947,1.1861324e-05,0.99983895,2.7567148e-05
0.00014844537,0.0016718507,0.00010192394,0.00012761354,2.4437904e-06,0.097757876,0.983858,0.00013899803,0.079374164,0.00985527
0.08357966,0.0,1.513958e-05,1.5050173e-05,7.748604e-07,0.0030789077,0.0029388964,0.0006392598,0.89721215,0.00090798736
0.0,0.00045880675,0.00062048435,2.5242567e-05,7.197261e-05,1.0,5.298853e-05,0.0013444722,0.0062140524,5.096197e-06
0.9845637,0.0,0.00010472536,4.258752e-05,4.172325e-07,0.0020383894,0.00044861436,0.0034422874,0.0065606236,0.00016924739
0.9569514,8.940697e-08,0.00040507317,1.1980534e-05,0.0,0.006373763,0.003331393,0.0016868114,0.0002886951,0.003392607
0.011967063,0.0035941303,0.0035966337,0.00088351965,0.00018972158,0.002818793,0.00329867,4.3064356e-05,0.99155456,0.004931718
9.036064e-05,9.6172094e-05,0.00053590536,0.00022894144,2.9802322e-08,0.004603058,0.99977976,5.543232e-06,0.00013011694,0.0008722842
0.9996091,0.0,1.5258789e-05,8.016825e-06,5.9604645e-08,0.0016416907,0.00050902367,6.6161156e-06,0.00026789308,5.3435564e-05
1.0102987e-05,1.41859055e-05,6.657839e-05,0.9999694,6.3985586e-05,0.0030692816,0.002114743,5.90086e-06,0.0002542138,5.6415796e-05
0.000151366,0.0,3.7550926e-06,2.3841858e-07,2.9802322e-08,0.000107586384,0.0001566112,0.9999956,7.131696e-05,4.720688e-05
0.010432154,1.1920929e-06,7.915497e-05,0.00016260147,7.867813e-06,0.0012516081,0.0067617595,0.0001553297,0.99794704,0.00042447448
0.121489435,0.00034588575,0.007727623,0.00010660291,1.3709068e-06,0.0044359267,0.002420187,1.5199184e-05,0.78329086,0.046132326
7.748604e-07,0.0,1.2069941e-05,9.23872e-07,4.172325e-07,0.0003658235,0.00033691525,0.9999995,0.000100016594,1.9013882e-05
0.0016954243,7.593632e-05,0.00022318959,0.00020676851,7.748604e-07,0.02132237,0.9952406,0.00064462423,0.000939399,0.011263162
0.039736032,0.0,5.3822994e-05,2.3663044e-05,1.5497208e-06,0.0013659596,0.002413839,5.981326e-05,0.9785142,0.0005583465
0.002504319,0.00023138523,8.85725e-05,0.00036486983,2.503395e-06,0.00059860945,0.010732681,1.1622906e-06,0.028762788,0.9866955
2.3454428e-05,0.032299668,0.0020671487,0.0054250956,0.000877738,0.021562666,0.007215619,1.4334917e-05,0.98764414,0.0024069846
0.048712313,4.7683716e-07,1.9907951e-05,2.5987625e-05,3.5762787e-07,0.0021162033,0.0041679144,0.00063216686,0.9646895,0.005576968
6.276369e-05,2.0861626e-07,3.5226345e-05,0.00010883808,7.748604e-07,0.9999957,0.0045903623,0.00020453334,0.00023120642,1.14142895e-05
0.9969053,0.0,5.3435564e-05,2.9534101e-05,2.9802322e-07,0.004967898,0.0037276447,8.5532665e-05,0.001232475,0.0010999143
0.9917815,2.9802322e-08,2.82228e-05,1.5616417e-05,8.940697e-08,0.006530136,0.0044846535,0.00018164515,0.006442666,0.002295941
0.9642087,0.0,6.264448e-05,1.4841557e-05,1.1920929e-07,0.0026941001,0.0010211468,0.05678162,0.000638783,0.0011716187
0.98029995,0.0,0.009790301,2.041459e-05,1.5795231e-06,0.005969584,0.006431222,0.0024588704,0.00030580163,0.0032676756
0.00038033724,1.2516975e-06,5.2273273e-05,0.00022467971,0.00022780895,0.00046092272,0.004588008,0.0001013577,0.99974394,4.634261e-05
0.96679115,1.23381615e-05,0.00059714913,0.00047788024,5.9604645e-07,0.008220434,0.002467066,0.00079780817,0.00030866265,0.029423743
0.030775934,1.1116266e-05,0.00064465404,0.001468718,5.7816505e-06,0.9975374,0.089315265,8.85427e-05,0.002444476,0.0007509887
0.36928993,1.129508e-05,0.0002452135,0.00010240078,6.854534e-07,0.0028069317,0.003614992,3.6597252e-05,0.8008618,0.010662615
0.013314933,0.0,1.8775463e-05,2.95043e-06,2.9802322e-08,0.0010594726,0.00095927715,0.99800545,0.00012651086,0.007278502
0.00011610985,0.9742373,0.028560013,0.00039434433,7.620454e-05,0.006020516,0.027071208,0.0017626882,0.018926442,0.00976488
1.1086464e-05,0.99985886,6.0528517e-05,0.0016140342,0.00011649728,0.008585036,0.00015121698,0.000105917454,0.0119561255,0.002737701
0.99904823,0.0,3.7014484e-05,3.424287e-05,8.940697e-08,0.0015131831,0.0015650988,0.0004017353,4.2945147e-05,0.000100284815
0.00014081597,6.8336725e-05,0.003944874,0.004772216,0.0018830597,0.999563,0.00928545,7.495284e-05,0.13149577,0.0002734661
0.99702764,0.0,1.3411045e-05,8.761883e-06,0.0,0.010784149,0.0012406111,2.7775764e-05,0.0024409294,0.0018079877
6.198883e-05,2.2947788e-06,0.006652385,0.99991894,0.8976845,0.003683567,0.004615754,2.9802322e-07,0.29669327,6.6161156e-06
0.004361242,7.882714e-05,0.00050759315,3.8176775e-05,5.9604645e-06,0.0014599264,0.008933395,3.5107136e-05,0.9963527,0.006514877
0.9628824,0.0,5.632639e-05,3.963709e-06,0.0,0.0011100471,0.0040772557,0.16579801,6.353855e-05,0.0004364848
0.009919852,1.4901161e-07,1.7255545e-05,2.18153e-05,1.66893e-06,0.002295792,0.002159804,0.00025093555,0.9934865,0.0013874769
0.99407446,2.413988e-06,0.00016522408,6.0409307e-05,2.9802322e-07,0.004791498,0.0055220723,8.6188316e-05,0.0013645887,0.011547118
0.00892359,9.62913e-05,0.0064112246,0.00073990226,0.00031343102,0.0017561018,0.015550464,0.00017595291,0.9783213,0.011711419
0.0016184747,9.089708e-05,0.0006481409,0.9985235,1.3828278e-05,0.013231337,0.007651478,5.662441e-07,0.032337904,0.0011785328
0.98658156,4.172325e-07,8.484721e-05,5.185604e-06,8.940697e-08,0.00990665,0.0042740107,0.0005171001,0.001106292,0.021939367
0.010352224,1.3381243e-05,9.590387e-05,0.00021889806,2.4467707e-05,0.0019730926,0.0044858754,1.49309635e-05,0.9953673,0.0020642579
5.662441e-07,1.2814999e-06,0.00026893616,9.23872e-07,5.9604645e-08,1.0,0.00017243624,1.013279e-06,0.00094011426,2.0861626e-07
0.73475873,5.9604645e-08,0.00039100647,0.00032037497,0.0001629591,0.005314201,0.005194634,4.118681e-05,0.44366595,5.581975e-05
0.009939492,0.0001476407,0.00012537837,9.483099e-05,1.2516975e-06,0.0021968484,0.010148168,1.40070915e-05,0.9868648,0.029624164
7.998943e-05,1.4454126e-05,0.0013629496,0.9999707,1.22487545e-05,0.0015645325,0.0015284121,6.7055225e-06,3.0577183e-05,8.830428e-05
0.98831433,0.0,9.387732e-06,1.2636185e-05,1.9967556e-06,0.0040860474,0.0015864074,0.0027360916,0.0012417436,3.170967e-05
2.2053719e-06,3.427267e-05,0.0002629757,0.9996713,0.047294557,0.029991388,0.049372494,3.7819147e-05,0.0002822876,0.00019535422
0.0018258393,0.000102847815,0.0026621222,0.99975586,0.02262503,0.015396088,0.009248465,2.0474195e-05,0.019084066,5.7905912e-05
1.1920929e-05,2.592802e-06,2.5451183e-05,1.9311905e-05,4.7683716e-07,0.011896521,0.9945855,0.8448785,0.0008343756,0.00010070205
0.0002592802,4.7683716e-07,2.3007393e-05,8.940697e-06,5.9604645e-08,0.0016175807,0.007948756,0.00020721555,0.065559626,0.89697766
0.0007856488,5.3852797e-05,0.006177753,0.9988282,0.46405426,0.013504863,0.004126966,2.2679567e-05,0.043631315,0.00010704994
0.282182,6.020069e-06,0.0003889799,0.00096583366,0.00010934472,0.0031734705,0.0027110875,5.0663948e-05,0.85819954,0.0031644702
2.2649765e-06,0.99965,0.00011706352,0.6583387,3.4332275e-05,0.0029096305,0.0020167828,1.4901161e-06,0.97195154,3.066659e-05
9.536743e-07,8.940697e-08,1.4692545e-05,0.9999945,0.00032272935,0.0061324537,0.0057942867,0.0,0.0006149709,1.6391277e-06
0.020555764,1.1920929e-06,8.761883e-05,2.0980835e-05,0.0,0.00044241548,0.0033894777,0.00049877167,0.01473555,0.98625946
1.2516975e-06,2.8908253e-06,0.0010873079,0.9999709,0.0015773475,0.0016894639,0.0020504892,9.9629164e-05,2.3007393e-05,1.4036894e-05
5.930662e-06,0.00016632676,4.6789646e-06,4.6491623e-06,1.7881393e-07,0.018770427,0.99700195,2.1487474e-05,0.7106918,0.00026503205
0.0015505254,2.720952e-05,0.98917645,0.0010556281,0.007927358,0.014926404,0.03028199,4.5478344e-05,0.07424039,0.0026679337
0.9560876,1.7881393e-07,9.173155e-05,4.172325e-06,0.0,0.0021163523,0.0039944053,0.009167701,0.00036123395,0.048792273
0.9327946,1.66893e-06,0.00021329522,9.179115e-05,8.940697e-08,0.016215146,0.002415806,0.00029805303,0.06404027,0.046957433
3.373623e-05,1.6093254e-06,0.0007494688,9.173155e-05,1.013279e-06,0.99999994,9.790063e-05,0.00057554245,6.005168e-05,2.9712915e-05
8.314848e-06,0.0,0.0,1.8179417e-06,0.0,0.0,1.7881393e-07,0.0,0.0,0.9999994
0.9971411,0.0,0.00083673,2.4080276e-05,5.9604645e-08,0.0019858778,0.0013378859,0.00054356456,0.00024846196,0.00024583936
0.0005222261,1.013279e-06,1.1116266e-05,0.00011187792,1.3113022e-06,0.002909869,0.0020938516,0.000104635954,0.9996017,9.825826e-05
0.97866464,1.7881393e-07,0.00096541643,8.660555e-05,4.23193e-06,0.004069388,0.0039560497,0.00021097064,0.007173121,0.011112392
0.96672124,0.0,1.385808e-05,2.002716e-05,5.9604645e-07,0.0034998357,0.0030005276,0.00015112758,0.16511741,0.0005400479
0.0005726218,0.0026482344,4.4196844e-05,6.312132e-05,9.834766e-07,0.017999232,0.98828816,0.00013998151,0.0482502,0.027359068
0.5921254,6.2584877e-07,0.7266876,0.00022554398,0.00014957786,0.005022973,0.0037510097,0.0337663,0.0015434325,0.00030732155
0.96379447,1.5199184e-06,0.020353675,0.00012207031,1.6272068e-05,0.0076254904,0.00277704,0.005422622,0.00022011995,0.0062024593
5.5372715e-05,8.8751316e-05,1.7434359e-05,4.7802925e-05,9.6440315e-05,0.002996862,0.004343331,3.7759542e-05,0.0007535815,0.98616064
0.00048738718,0.98434436,0.0016810298,0.025276214,7.387996e-05,0.008693606,0.006757289,3.6656857e-06,0.3999141,0.07130918
0.98710835,1.2814999e-06,0.00020071864,0.00015121698,8.6426735e-07,0.0042277277,0.0031712353,0.00038167834,0.00071159005,0.030906826
0.0002731979,0.00054848194,0.0052382946,0.9968805,0.05938241,0.015711099,0.0062891543,3.3974648e-06,0.17906952,0.009369373
0.081472814,1.4603138e-06,0.8507231,8.893013e-05,7.033348e-06,0.006945491,0.0093741715,0.0006095469,0.11418635,0.00058704615
0.15586889,2.9802322e-08,1.8686056e-05,1.5944242e-05,1.1622906e-06,0.0026796162,0.0031653047,0.00071015954,0.9285105,0.0016272664
2.0325184e-05,0.011025071,0.7068982,0.8360649,0.00012901425,0.0054852366,0.08565572,3.1590462e-06,0.9994714,1.9550323e-05
0.41347098,6.556511e-07,0.003855437,0.00013896823,1.1712313e-05,0.00986594,0.0045901537,0.42926437,0.002314508,0.067299396
0.0012708306,1.6987324e-06,0.8549744,0.0006773174,5.3346157e-05,0.0010249913,0.007095903,2.6464462e-05,0.9874532,9.217858e-05
0.91523,1.1622906e-06,7.420778e-05,9.62615e-05,1.5258789e-05,0.0044160187,0.009751976,7.367134e-05,0.014460027,0.04343736
6.556511e-07,0.0034721196,0.0011938512,0.9994513,2.9802322e-07,0.00041285157,0.014403015,4.7683716e-07,0.9930402,8.1688166e-05
0.0,8.940697e-08,1.1444092e-05,0.9999991,2.0503998e-05,7.31647e-05,0.00024279952,1.4901161e-07,9.23872e-07,2.0861626e-07
0.00091198087,0.0012325346,0.00024589896,0.00018289685,6.943941e-06,0.0032631159,0.010688722,4.4375658e-05,0.99794513,0.0018268228
0.0,0.9938942,0.0033783913,0.999817,0.1831441,0.7430425,0.033212095,8.940697e-08,0.035937607,1.2516975e-06
0.98586345,2.3841858e-07,5.4329634e-05,7.5280666e-05,1.7881393e-07,0.0068901777,0.002570659,0.0030971467,0.00037649274,0.01904133
0.000195086,0.8152354,0.016685545,0.0012441874,6.917119e-05,0.010116607,0.048806846,3.5732985e-05,0.7053845,0.02136904
0.9977561,0.0,0.00012651086,7.376075e-05,2.682209e-07,0.0052416325,0.0032155812,4.9978495e-05,0.0012371242,0.00094127655
0.0023240745,4.172325e-07,0.00018340349,4.7683716e-05,1.2725592e-05,0.002339542,0.00442037,0.00025132298,0.9991126,6.708503e-05
0.0033019185,0.004278481,0.015533775,0.0009844303,0.0003594756,0.0027124882,0.010423094,8.767843e-05,0.9897202,0.0150074065
0.00011190772,0.9365956,0.0036846101,0.7770834,0.00023651123,0.023161918,0.0067560375,5.066395e-07,0.1193676,0.02225545
0.96164846,0.0,1.0073185e-05,0.00013780594,1.3709068e-06,0.004902005,0.0018384755,0.0021266043,0.030378968,0.00048694015
5.066395e-07,2.9027462e-05,0.0014582276,0.024023145,9.804964e-06,1.0,0.0021846294,2.4437904e-06,0.0031866431,2.0861626e-06
0.91871893,2.9802322e-08,3.3974648e-05,1.8417835e-05,0.0,0.0021196902,0.0013948679,0.057298988,1.9907951e-05,0.036394358
1.9460917e-05,0.0,1.6093254e-06,1.4692545e-05,2.9802322e-08,3.8325787e-05,0.00040107965,0.9468976,0.9996036,1.9788742e-05
0.0009685755,0.98758507,0.003835529,0.018111885,0.00015830994,0.009013116,0.01453352,3.9607286e-05,0.7750775,0.018901527
0.9529352,2.4735928e-06,0.00020003319,2.95043e-05,0.0,0.0050108135,0.0030117333,0.00094226,0.00041246414,0.22126234
0.00033149123,0.009050697,0.00049200654,0.00048935413,5.00679e-06,0.9876902,0.8239982,4.3332577e-05,0.2385957,0.0018129349
0.00030449033,0.000121712685,9.128451e-05,0.0005555451,2.9057264e-05,0.0016331971,0.0048650503,4.7951937e-05,0.9997681,0.00023850799
3.2812357e-05,0.9523033,0.02242887,0.27701867,0.00055480003,0.011859447,0.009093285,1.5109777e-05,0.37626076,0.052945554
4.172325e-06,0.00070878863,0.0069909096,0.21241918,0.024912328,0.9999131,0.0031721294,0.00017946959,0.0013875961,0.0032693744
4.887581e-06,1.3113022e-06,1.3798475e-05,3.0994415e-06,8.940697e-08,0.002617091,0.0035019517,0.069437176,0.0014059246,0.923758
0.23481125,1.001358e-05,0.00065732,0.7723911,9.4503164e-05,0.0120384395,0.010615021,0.00016751885,0.11463353,0.001529634
0.0034201145,6.2584877e-07,2.3275614e-05,0.00010442734,2.3245811e-06,0.00083991885,0.008264989,0.002053827,0.9977289,0.0008648634
0.00079995394,3.516674e-06,8.147955e-05,0.0005055368,3.322959e-05,0.0018086731,0.006619215,5.248189e-05,0.99928224,0.00027260184
1.3232231e-05,1.847744e-06,0.0001707077,0.99997866,2.3543835e-06,0.0014794469,0.0047618747,2.9802322e-07,0.0001887083,5.3048134e-06
3.2782555e-06,2.682209e-07,0.002072394,1.874566e-05,1.937151e-06,0.99982345,0.004392892,8.046627e-06,0.22309661,3.9368868e-05
0.00010693073,9.23872e-07,0.9990094,0.00057929754,3.167987e-05,0.0012775362,0.0062201917,2.1636486e-05,0.33448923,9.289384e-05
0.9495703,8.6426735e-07,5.158782e-05,0.00010576844,2.3841858e-06,0.009615332,0.0024068356,0.013658255,0.0033828914,0.015278697
1.2814999e-06,0.019706905,1.5467405e-05,2.6106834e-05,0.00025337934,0.025158316,0.98658776,0.0010403693,0.00060868263,0.0017113686
0.99678004,5.9604645e-08,2.9683113e-05,4.5359135e-05,2.3841858e-07,0.008120835,0.003423959,4.8160553e-05,0.0009007752,0.0006929636
2.8699636e-05,1.847744e-06,0.00054234266,0.9999879,4.979968e-05,0.008632511,0.010391563,1.7881393e-06,0.0015968382,9.834766e-07
0.0006804764,1.7881393e-07,0.00067538023,5.057454e-05,4.7683716e-07,0.0018121302,0.97080433,3.4332275e-05,0.017411321,0.00050130486
7.82907e-05,7.4505806e-07,6.556511e-06,0.00015312433,1.5497208e-06,0.00070384145,0.0032625198,2.720952e-05,0.99993575,3.9309263e-05
0.04878363,6.568432e-05,0.0001269579,0.00013324618,1.0043383e-05,0.004227847,0.011907399,3.6358833e-05,0.9482362,0.075244725
7.6413155e-05,0.86119163,0.078532964,0.9333575,0.012258232,0.0041029453,0.010582089,0.000107228756,0.94232416,0.0015748143
0.99308264,1.7881393e-07,0.000107795,2.3394823e-05,5.9604645e-08,0.005431205,0.0028351247,0.0005450845,0.0011547208,0.0020107925
0.9967289,0.0,0.00083988905,1.3947487e-05,5.066395e-07,0.00085404515,0.0026557446,0.0002875924,0.0019957423,5.0723553e-05
0.98600256,1.7881393e-07,0.00014084578,1.385808e-05,4.7683716e-07,0.004297495,0.0031271577,9.289384e-05,0.010567844,0.0074522197
0.0095591545,5.64456e-05,0.00060486794,0.00010377169,0.00035867095,0.0027357638,0.008009702,8.7589025e-05,0.99702454,0.0023551881
0.8221718,1.013279e-06,0.00012856722,0.00010704994,7.6293945e-06,0.004315853,0.006445378,0.00012904406,0.45805877,0.007973611
0.0020287633,5.9604645e-08,0.0014221668,3.2305717e-05,3.6358833e-06,0.0038765967,0.0036703646,0.99899155,0.0020318925,0.007163763
0.99710506,0.0,5.605817e-05,1.9073486e-05,2.9802322e-08,0.0041464865,0.0019397736,7.0244074e-05,0.0009327233,0.004301071
6.28829e-06,0.014657646,0.8299157,0.68615615,0.0015283227,0.99828684,0.008248121,1.859665e-05,0.4914388,0.00013014674
0.54638666,0.0,1.898408e-05,0.00013178587,1.8775463e-06,0.0023916662,0.003468573,0.00076428056,0.6504477,0.00112921
0.25065285,8.85129e-06,0.010468185,0.0005196333,7.149577e-05,0.0031857789,0.00848487,0.002647221,0.051881343,0.1344302
0.0069403946,6.467104e-06,0.003441751,0.0003362,0.0015313923,0.0013310909,0.007727802,0.00051921606,0.9859549,0.002706796
0.0004477501,2.5898218e-05,9.387732e-06,9.381771e-05,1.2516975e-06,0.0012722015,0.005246818,5.736947e-05,0.99953055,0.0010602176
0.15164074,5.841255e-06,0.0015037954,0.013062805,0.0004322827,0.035684407,0.26185247,4.926324e-05,0.0008982718,0.010035664
0.019355178,6.7055225e-06,5.6177378e-05,1.3589859e-05,5.364418e-07,0.0045894384,0.002290994,0.00026726723,0.99194014,0.0054730475
0.9835337,2.9802322e-07,2.2679567e-05,6.3955784e-05,1.6391277e-06,0.0045544505,0.0061480403,0.00017979741,0.000985831,0.04054895
0.99037457,0.0,1.6272068e-05,8.961558e-05,3.5762787e-07,0.0035208166,0.002414018,0.0005906522,0.0002901554,0.011505604
0.0066234767,0.0,6.467104e-06,8.910894e-06,2.8014183e-06,0.0028015673,0.0011259913,0.99933934,0.00058576465,0.00080803037
0.0027726889,0.00015765429,0.0006414354,0.0035337806,2.8014183e-06,0.9994617,0.015290529,7.215142e-05,0.00010380149,0.0046677887
0.0028283894,1.1920929e-07,2.6732683e-05,1.6748905e-05,3.5762787e-07,0.0007439554,0.006174028,0.0005891323,0.9965402,0.0008992553
0.005447924,0.00020989776,0.0010722578,7.626414e-05,1.41859055e-05,0.001444757,0.007548183,0.000153929,0.9955003,0.013864726
1.2993813e-05,8.559227e-05,0.9950201,0.00049337745,0.00011181831,0.0050765276,0.038916916,1.54078e-05,0.9898786,9.0032816e-05
0.0007354915,0.0012467802,0.00010377169,0.98746955,0.00019234419,0.007969528,0.06296086,6.1392784e-06,0.0900048,0.023217022
0.0016347468,3.874302e-07,0.0015783608,7.092953e-05,8.940697e-08,2.759695e-05,0.001195997,0.00043579936,0.00013130903,0.9980843
0.1157296,6.4343214e-05,0.0008651316,7.906556e-05,3.4570694e-06,0.0014447868,0.016343385,2.6583672e-05,0.38778856,0.25995427
0.016852975,3.6358833e-06,0.00021648407,0.00022909045,9.834766e-07,0.029374272,0.054724514,0.0024253428,0.05324623,0.32569334
0.9850943,4.7683716e-07,0.0009140372,9.0152025e-05,2.4735928e-06,0.0038368106,0.0050379634,0.006693274,0.00035253167,0.014145404
0.9926195,0.0,2.503395e-05,3.287196e-05,4.7683716e-07,0.005378157,0.0027772188,0.0013564527,0.0008637905,0.0019675195
1.7106533e-05,0.99605256,9.304285e-05,0.0026857257,0.00012475252,0.0018338859,0.00088745356,4.965067e-05,0.43867382,0.0018914342
0.0009898841,6.645918e-06,7.31349e-05,6.1929226e-05,2.0861626e-07,0.002082914,0.008736908,0.000495255,0.02242595,0.98743725
7.4505806e-07,2.0861626e-07,0.99964434,0.00052565336,0.025427818,0.0015159249,0.011694282,0.00013843179,0.98397124,7.4505806e-07
0.83951235,1.180172e-05,0.7016584,0.00012901425,4.1514635e-05,0.009658784,0.006946683,0.0047273934,0.007328868,0.000926584
0.0004287958,0.05978188,0.064368546,0.9843461,0.0022755265,0.0060654283,0.022653788,1.1861324e-05,0.90817845,0.0154441
1.6391277e-06,0.9991896,0.00016519427,7.840991e-05,6.66976e-05,0.044836223,0.0007792115,5.4836273e-06,0.27218848,0.0011347234
0.0031000972,5.6803226e-05,4.9829483e-05,9.316206e-05,2.9802322e-06,0.0022816062,0.011145443,7.867813e-05,0.9975939,0.005871713
3.4570694e-06,0.0,0.9997536,0.0004529953,6.467104e-06,0.0009146333,0.008519322,1.424551e-05,0.92909527,2.115965e-06
0.113039315,8.940697e-08,1.2606382e-05,0.00030365586,1.5199184e-06,0.0070267916,0.0010131598,0.004527539,0.9579005,0.00054728985
0.18524846,5.364418e-07,0.00010550022,1.719594e-05,5.9604645e-08,0.0005670786,0.0018230677,0.51455814,0.005213678,0.104040146
0.98790264,0.0,0.0001116097,8.34465e-07,0.0,8.264184e-05,0.00069856644,0.09094152,1.2516975e-06,2.5808811e-05
8.940697e-08,9.268522e-06,7.259846e-05,9.2089176e-05,9.834766e-07,0.99999934,0.0017310977,5.3048134e-06,0.99584603,7.4505806e-07
0.7389331,0.0,2.2053719e-05,3.46303e-05,5.9604645e-07,0.0021507442,0.004214555,0.00041383505,0.42936304,0.0017555058
0.009330124,8.940697e-08,3.8594007e-05,2.8192997e-05,1.9669533e-06,0.0031823516,0.004528016,0.024837136,0.96411335,0.006729454
0.14463118,9.268522e-06,0.00030690432,3.6120415e-05,2.7120113e-06,0.0046180785,0.0063673854,0.00027295947,0.89427304,0.054326802
0.0,0.0020853877,0.0053286254,0.0013761818,2.4557114e-05,1.0,0.000110924244,1.7285347e-06,0.83469164,3.5762787e-07
1.7881393e-06,0.017537951,0.060765624,0.12513155,0.00048309565,0.98413795,0.07518926,6.6161156e-06,0.0002847314,0.017632544
0.37274933,1.2606382e-05,0.00017857552,0.00026991963,1.1920929e-07,0.0038117766,0.0024282932,0.03667164,0.0024354458,0.63210547
0.00010809302,3.5762787e-07,0.00028806925,9.036064e-05,1.013279e-06,0.005415201,0.004819691,0.99030614,0.00040498376,0.11774629
4.142523e-06,1.7881393e-07,0.0017007291,0.0002578795,0.99982905,0.0007895231,0.0021094084,0.000103116035,0.2056795,1.1950731e-05
1.4901161e-07,0.00045201182,0.00093126297,5.364418e-07,6.467104e-06,0.7810154,0.83287066,6.446242e-05,0.08957371,0.0012738109
0.99808145,0.0,0.0001835823,3.7819147e-05,1.7881393e-06,0.00439173,0.002459824,2.1874905e-05,0.0019753575,0.00026479363
0.00017547607,4.5597553e-06,4.3094158e-05,0.9998685,2.05338e-05,0.007111907,0.004110962,5.185604e-06,0.0015368164,3.963709e-06
0.00090548396,3.7401915e-05,0.26176217,0.0020028353,0.013491005,0.0020028055,0.028651714,0.0004709661,0.9790764,0.0009122193
0.007689148,2.0623207e-05,0.9569877,0.00016257167,0.002821952,0.005733013,0.013191611,0.0006350875,0.3153158,0.0016219914
0.0015963316,4.61936e-05,3.9726496e-05,2.0593405e-05,2.9802322e-07,0.009435147,0.99623674,0.011216015,0.006330967,0.0013216436
0.78101766,7.748604e-07,0.0003554225,9.009242e-05,1.0430813e-06,0.0021392107,0.010081947,4.3064356e-05,0.2869254,0.009216368
4.172325e-07,0.00053185225,0.00082218647,0.004653454,2.0503998e-05,0.8656757,0.9652794,0.00011405349,0.010791421,0.018382221
0.00016340613,1.2278557e-05,3.59118e-05,0.0010442138,1.1622906e-06,0.82372,0.97736347,4.595518e-05,0.0012535453,0.00010329485
0.9954263,0.0,1.2010336e-05,0.0001706183,2.5331974e-06,0.011539906,0.0026871562,0.0003901422,0.0008830428,0.0016331673
0.02166441,6.452203e-05,0.00039374828,0.00039875507,6.946921e-05,0.0019357502,0.0082137585,0.00016632676,0.21352878,0.48364455
0.00053074956,0.00025111437,0.0008942485,0.0004852116,5.6922436e-06,0.9973055,0.014132261,6.303191e-05,0.07035956,0.08811244
0.98098785,0.0,0.0001410842,6.735325e-06,5.9604645e-08,0.009285092,0.006227106,0.013519555,0.0006817281,0.0053831935
0.0,0.0,0.9999574,0.9998617,0.0011045635,0.004280269,0.007429093,5.9604645e-08,0.060121745,0.0
0.10703102,1.2546778e-05,0.00022786856,0.00043293834,4.6014786e-05,0.0035681725,0.004886478,8.687377e-05,0.9607463,0.0033612847
0.25773513,0.0,0.00024285913,3.0696392e-06,2.9802322e-07,0.0033205152,0.0054708123,0.9689648,0.00019598007,0.0011814237
0.0008929968,5.9604645e-08,0.0020380616,0.000105232,2.95043e-06,0.002226472,0.0015673041,0.89716095,0.00015196204,0.22768971
0.17641085,4.708767e-06,0.00023171306,3.2901764e-05,1.6093254e-06,0.0023046732,0.014363378,0.0002452135,0.72466373,0.01128
0.89666426,6.467104e-06,0.00076547265,4.4882298e-05,8.940697e-06,0.006803632,0.005506456,0.00038677454,0.0040403306,0.10650939
0.014395714,1.8149614e-05,3.9309263e-05,9.7602606e-05,1.3202429e-05,0.0055119693,0.003486693,0.00021779537,0.023251235,0.8800205
0.000510484,1.7881393e-07,0.00063094497,0.0020183027,0.99981135,0.0014744401,0.0027296245,1.5199184e-06,0.020846426,0.0033875406
0.9674271,2.1755695e-06,0.0003093779,4.068017e-05,4.172325e-07,0.0038900375,0.004096955,0.0013197064,8.407235e-05,0.06332484
0.00032368302,0.1338923,0.030351013,0.00490278,0.000111579895,0.016399384,0.8514102,9.745359e-06,0.89368856,0.0029556751
0.98177326,1.7881393e-07,1.2010336e-05,4.9859285e-05,2.0861626e-07,0.0025849044,0.003405124,8.8751316e-05,0.051387608,0.0012356341
0.005977601,5.2183867e-05,2.6136637e-05,0.0001322627,4.3213367e-06,0.0019876957,0.010745138,1.5616417e-05,0.9933129,0.022710204
6.854534e-07,0.9414823,0.0022116005,0.99851817,0.0014527738,0.05144328,0.020687789,1.7881393e-07,0.92930305,2.0444393e-05
0.99543756,0.0,1.603365e-05,8.583069e-06,1.4901161e-07,0.008977741,0.002150476,0.0007804036,0.0019407272,0.0007185936
0.23439464,4.4465065e-05,0.0035090744,3.579259e-05,0.0,0.0003274083,0.0016243756,0.0016416907,1.9550323e-05,0.86542976
0.9957956,0.0,8.374453e-06,1.3411045e-05,2.9802322e-08,0.003178537,0.001388371,0.0028813183,0.001052022,3.7908554e-05
0.88076544,6.0498714e-06,0.00010731816,5.0991774e-05,2.0563602e-06,0.0035933256,0.004740417,0.00017037988,0.119992316,0.08148387
0.10205406,4.887581e-06,4.9620867e-05,0.00029337406,9.983778e-06,0.018958956,0.01732549,0.00013035536,0.5095843,0.016044676
0.98694766,0.0,0.0007265508,3.8564205e-05,1.0430813e-06,0.0045875013,0.014448166,0.001020819,0.0005238354,0.006149471
0.99401593,0.0,5.7160854e-05,1.5735626e-05,2.3841858e-07,0.0034284294,0.0011590123,0.0007144213,0.0005477667,0.00040224195
0.002504319,0.00023138523,8.85725e-05,0.00036486983,2.503395e-06,0.00059860945,0.010732681,1.1622906e-06,0.028762788,0.9866955
0.0025044978,0.00023144484,8.85427e-05,0.00036495924,2.4437904e-06,0.00059860945,0.01073274,1.1622906e-06,0.028757513,0.9866967
0.0,0.99998045,0.00019460917,0.89365005,0.0043222904,0.008883029,6.946921e-05,1.2516975e-06,0.0040715635,2.002716e-05
2.1338463e-05,0.9951768,0.009174168,0.00017517805,0.00061792135,0.049838573,0.0010954738,0.000107228756,0.07650629,0.00055992603
7.688999e-06,1.7881393e-07,0.010121703,0.0009203851,0.9937484,0.00021800399,0.0020674765,0.019618392,0.89118207,1.707673e-05
0.99690044,0.0,3.8713217e-05,1.9669533e-05,1.7881393e-07,0.0033417344,0.0027096272,0.0015186965,0.000500679,0.00033786893
0.0003232956,0.0002618134,0.00011649728,0.00022098422,3.784895e-06,0.0030488968,0.77377564,0.00012025237,0.96539253,0.0024504364
0.9975196,0.0,0.00010809302,5.990267e-06,1.1920929e-07,0.0037822127,0.0058950186,0.0006856322,0.00084125996,0.00038337708
3.5762787e-07,4.7683716e-07,7.125735e-05,0.99999756,0.00094917417,0.00018784404,0.0005861223,8.046627e-07,3.3140182e-05,2.1457672e-06
2.682209e-06,7.6293945e-06,0.97202396,0.0021564364,0.2146905,0.0024781227,0.009759754,0.0002707839,0.9894848,1.3649464e-05
4.2676926e-05,5.066395e-07,0.0017395914,1.707673e-05,8.940697e-08,8.255243e-06,0.00031507015,0.00023436546,0.00045475364,0.9953752
0.0025044978,0.00023144484,8.85427e-05,0.00036495924,2.4437904e-06,0.00059860945,0.01073274,1.1622906e-06,0.028757513,0.9866967
6.3180923e-06,0.0,4.5120716e-05,0.9999869,0.00010699034,0.0005272329,0.0011639893,1.4007092e-06,2.1070242e-05,5.066395e-07
0.9873189,0.0,1.9133091e-05,2.1666288e-05,1.4901161e-07,0.0072207153,0.0031009316,0.0034182072,0.00043287873,0.0057615936
0.015767157,4.7683716e-07,0.0001347363,0.00029316545,0.00022253394,0.0031309128,0.003962368,0.00022426248,0.9955616,0.00024303794
0.99894345,0.0,0.00026848912,1.6987324e-06,0.0,0.001346916,0.0014986098,0.0002590418,1.7136335e-05,0.00010538101
0.9969001,5.9604645e-08,3.5107136e-05,1.7374754e-05,3.5762787e-07,0.0065639615,0.0029251575,0.00024583936,0.0017387271,0.004078895
3.6656857e-06,2.1725893e-05,3.1650066e-05,0.0001476109,0.0,0.0020962358,0.9999898,1.2785196e-05,0.002031386,7.748604e-07
0.032114565,1.168251e-05,5.0336123e-05,0.045496732,0.0016804934,0.00473693,0.015349597,0.00040888786,0.566965,0.013091415
0.0014270842,0.00020325184,0.00021222234,0.0004093647,2.2470951e-05,0.006109506,0.439114,6.15716e-05,0.9915427,0.0001964271
0.98489344,0.0,9.298325e-06,2.6494265e-05,2.8908253e-06,0.0026830733,0.00067064166,0.03827414,0.00025472045,0.0010056794
0.0,0.0023251772,0.5912793,0.99994004,8.127093e-05,0.009178191,0.04773462,2.9802322e-08,0.21521086,0.0
0.0,0.00013691187,0.00054323673,0.99999493,3.9607286e-05,0.012396246,0.91243577,0.0,0.9993484,0.0
2.2053719e-06,0.00042435527,0.9620286,0.99972725,0.00030988455,0.0136446655,0.010733992,8.940697e-07,0.0048353374,6.3985586e-05
0.9382313,2.3841858e-07,0.0069639087,1.3321638e-05,5.662441e-07,0.004290521,0.0038761497,0.003196299,0.028964192,0.008860141
0.0068739057,6.4373016e-06,1.3113022e-05,8.329749e-05,1.4305115e-06,0.008671403,0.00511232,4.9442053e-05,0.9910211,0.0054313242
0.022736788,0.000574559,0.00011330843,0.00011968613,3.2186508e-06,0.006628841,0.017427266,5.608797e-05,0.96235496,0.061761558
0.0028035939,2.4735928e-06,7.098913e-05,0.00052818656,7.301569e-06,0.0008225739,0.0039027035,6.043911e-05,0.99592984,0.0018233359
0.99680567,0.0,4.6163797e-05,3.4183264e-05,3.8146973e-06,0.0044544637,0.0051841736,0.00012540817,0.000567168,0.001906544
2.9802322e-08,1.7523766e-05,0.0018425882,0.99997175,1.2785196e-05,0.0037397146,0.03997144,0.0,0.9976362,1.1920929e-07
0.0,0.0005488992,0.95737284,0.00023290515,0.0005634427,0.024191082,0.9893348,1.758337e-06,0.997228,8.940697e-08
0.48898947,3.874302e-07,2.041459e-05,8.368492e-05,4.172325e-07,0.0020310879,0.0013792515,9.089708e-05,0.7517409,0.0019453764
0.99912333,0.0,6.082654e-05,2.3841858e-06,5.9604645e-08,0.0038489401,0.0019720197,0.00011253357,2.926588e-05,0.00015592575
0.0011807382,0.00024825335,0.004795015,0.99920535,0.003817916,0.006849766,0.02559033,5.155802e-06,0.05047986,4.2319298e-05
2.2649765e-06,0.003683865,0.18842974,0.9994387,0.06135586,0.027794272,0.015824199,5.2452087e-06,0.00551033,6.3210726e-05
5.593896e-05,0.99522483,8.273125e-05,5.608797e-05,2.7745962e-05,0.005781889,0.000569582,0.00042006373,0.0008995533,0.005264342
0.06768599,0.0,0.0002900064,1.3500452e-05,5.364418e-07,0.00016286969,0.0020250678,5.185604e-06,0.96013904,1.0162592e-05
0.00057059526,0.0081317425,2.6404858e-05,0.001060605,2.8669834e-05,0.013679922,0.7694053,8.684397e-05,0.08471164,0.117468
0.00096186996,0.9788375,0.0006688237,7.212162e-05,1.0728836e-06,0.013903797,0.00062927604,1.809001e-05,0.017939448,0.018528342
0.9916699,0.0,4.631281e-05,2.4050474e-05,5.066395e-07,0.006409496,0.0047191978,0.00012436509,0.013434708,0.00053831935
0.0025044978,0.00023144484,8.85427e-05,0.00036495924,2.4437904e-06,0.00059860945,0.01073274,1.1622906e-06,0.028757513,0.9866967
0.011976838,3.9041042e-06,0.00010344386,1.6003847e-05,0.0,0.0005136728,0.0038951933,7.465482e-05,0.019542515,0.9950609
0.012884289,6.3329935e-05,0.0005450845,7.799268e-05,1.7881393e-07,0.0029428601,0.02006808,8.910894e-06,0.98889923,0.0028605163
0.0009508729,5.9604645e-07,0.00039699674,0.00048744678,5.3793192e-05,9.804964e-05,0.0036949515,0.00027519464,0.00037810206,0.9964264
0.9995034,0.0,2.115965e-06,2.8312206e-06,0.0,0.0037887692,0.00065132976,7.107854e-05,0.00017273426,3.8444996e-06
0.99658483,2.0861626e-07,0.00022381544,2.1547079e-05,2.9802322e-07,0.0060893893,0.0048350394,0.00077164173,0.00016769767,0.001419872
0.005459845,8.046627e-06,4.2706728e-05,2.8431416e-05,7.5101852e-06,0.002941668,0.0039801896,0.00079748034,0.99726033,0.0029076338
4.196167e-05,0.9977497,0.0011622906,0.012120634,0.00018900633,0.008058369,0.00026756525,0.0002167821,0.11718118,0.006527543
0.00042241812,0.00021263957,0.0005880594,0.0011509061,8.556247e-05,0.004054934,0.005558163,5.5104494e-05,0.9984504,0.00028657913
0.0,0.059777826,0.004718542,0.10159564,0.003525734,0.9997399,0.46047857,2.861023e-06,0.5698309,8.34465e-07
0.00011411309,8.684397e-05,0.00089505315,3.5107136e-05,2.0861626e-07,0.8093935,0.043269694,5.182624e-05,0.033830553,0.1480979
0.018749505,3.054738e-05,6.389618e-05,0.0005208552,1.2367964e-05,0.005189657,0.005436331,3.4570694e-05,0.99133766,0.0018804371
0.8019105,1.8209219e-05,0.016664743,3.555417e-05,8.940697e-07,0.002902031,0.0029139519,0.0002847314,0.00065144897,0.23405495
0.112827,4.7683716e-07,0.9892498,0.001591593,4.416704e-05,0.004816234,0.007420391,0.001573056,0.0007663965,0.00038087368
0.9440582,1.758337e-06,0.00013887882,8.380413e-05,9.834766e-07,0.011396736,0.0057163537,4.9054623e-05,0.051352203,0.009921968
0.4538009,1.013279e-06,2.9712915e-05,0.0011752248,2.0563602e-06,0.0060031116,0.0018153489,0.016430289,0.80504394,0.0032372177
4.2378902e-05,0.9814912,0.014654368,0.037735105,0.0050400496,0.014335245,0.008340538,3.311038e-05,0.61571425,0.0068162084
1.3440847e-05,0.0,7.033348e-06,0.99999416,3.2782555e-07,0.00026583672,0.0027671158,2.3245811e-06,1.0728836e-06,5.066395e-07
0.0003170669,0.0052112043,0.030581325,0.2997309,0.005749315,0.004193425,0.010281056,1.8894672e-05,0.99524325,0.0001527965
0.99784076,0.0,0.0007208586,3.8206577e-05,1.1920929e-07,0.0021981895,0.0019831061,0.00044301152,0.0002644956,0.0010640919
0.028052598,0.00010210276,0.0009824634,9.894371e-05,5.6922436e-06,0.98543125,0.02469173,0.00013360381,0.043179393,0.03391561
0.9909721,4.7683716e-07,0.00010699034,5.4568052e-05,8.940697e-08,0.0059493184,0.0063485205,0.0017531514,0.00028958917,0.01192981
7.0035458e-06,0.00045144558,0.00091418624,0.0012529492,0.00010254979,0.9989324,0.018099487,2.4855137e-05,0.99769723,6.2584877e-06
0.00025436282,2.026558e-06,0.00024339557,0.99996126,0.00020501018,0.0071999133,0.009099573,1.1920929e-06,0.00091281533,2.6911497e-05
6.7055225e-06,0.95457834,0.011564076,0.9956503,0.00073707104,0.0048792064,0.004042506,1.2516975e-05,0.8579054,0.0005380213
0.000110954046,3.388524e-05,0.00047051907,0.00012370944,1.847744e-06,0.99999964,0.009280771,4.7177076e-05,0.0015393198,0.00017187
0.019568563,5.9604645e-08,2.5391579e-05,6.374717e-05,4.3809414e-06,0.00083449483,0.0022360384,5.272031e-05,0.99198914,1.4990568e-05
0.011849254,2.9802322e-08,2.2649765e-06,4.3809414e-05,8.940697e-08,0.0011731386,0.0017920434,7.498264e-05,0.98971933,0.00016543269
0.1126591,2.9802322e-07,0.00028723478,7.44462e-05,0.00080272555,0.011997193,0.012203902,0.00026115775,0.8002885,0.0014950931
0.010689527,0.00017416477,0.3799758,0.00079652667,5.751848e-06,0.0033504367,0.010297805,2.1249056e-05,0.9947999,0.00089740753
0.97133124,1.7881393e-07,0.00041100383,3.901124e-05,1.4901161e-07,0.0015501678,0.0019834638,0.0003079176,0.00077331066,0.0004017949
0.9961227,0.0,0.00014716387,2.1159649e-05,1.4901161e-07,0.0068130493,0.00900957,0.00084224343,0.00028055906,0.0023355484
0.004799098,0.0010910332,0.0006991625,3.3169985e-05,9.387732e-06,0.015589327,0.6382722,0.1480155,0.0059862435,0.18374035
0.99756587,0.0,3.6507845e-05,9.816885e-05,1.1920929e-07,0.0025707483,0.0029894412,0.00010553002,0.00046518445,0.0019889474
0.00065493584,0.00027951598,0.13001108,0.00014549494,1.7762184e-05,0.0027728975,0.012527823,0.00012257695,0.9966258,0.0016223788
2.6524067e-05,0.9969213,0.0007507801,0.024609357,0.0004377365,0.010533482,0.023684531,7.301569e-06,0.87818193,0.0013591349
0.0,2.7418137e-06,0.9993977,0.999125,0.21499196,0.0018374324,0.024535507,4.082918e-06,0.0020971,2.2351742e-06
4.172325e-07,0.99943894,0.0009032488,9.319186e-05,0.0017920136,0.021454066,0.00017860532,0.0001539886,0.003514558,0.00023773313
0.9949908,0.0,5.0365925e-06,1.3947487e-05,0.0,0.008124948,0.0007266402,6.8217516e-05,0.002604425,0.00036117435
0.0049751997,0.43701226,0.00010728836,0.00024726987,4.172325e-07,0.0043645203,0.002854377,5.930662e-06,0.9141066,0.1943849
0.001873821,1.1026859e-06,4.23193e-06,0.000546515,5.990267e-06,0.0020409226,0.005058348,1.3679266e-05,0.997004,0.00023075938
8.568168e-05,0.00025758147,2.8371811e-05,4.5508146e-05,8.6426735e-07,0.00940451,0.9983365,1.5318394e-05,0.006627083,0.0032195747
0.19464883,5.662441e-07,6.368756e-05,4.7266483e-05,8.434057e-06,0.00353536,0.004926592,0.006815791,0.923263,0.004490465
0.00062444806,7.3611736e-06,0.0050961077,3.7431717e-05,6.2584877e-07,0.001305759,0.014777601,0.006657243,0.1797759,0.60446656
0.9984895,0.0,0.00029432774,1.2040138e-05,1.4901161e-07,0.0019525588,0.0038915873,0.0011238456,0.00013527274,0.00017765164
0.16052324,3.0100346e-06,5.9962273e-05,2.503395e-05,1.7881393e-07,0.00037005544,0.0032252073,4.2259693e-05,0.0092484355,0.9421532
