0,1,2,3,4,5,6,7,8,9
0.82903785,0.0008380711,0.0049316883,0.00072932243,0.00045454502,0.025703758,0.031847596,0.00060003996,0.010245174,0.04923615
0.5974855,1.847744e-06,0.0007393956,0.00049218535,3.5762787e-06,0.004770905,0.0044806898,0.3102665,2.989173e-05,0.01830417
5.1617622e-05,0.0008086562,0.003886819,0.006651491,0.9374713,0.98371375,0.029128432,7.030368e-05,0.0006130934,0.00057151914
2.9802322e-08,0.0041719377,0.00016874075,0.999913,8.0913305e-05,0.0036157668,0.9981923,0.0,4.6014786e-05,8.076429e-06
0.0022411942,8.2850456e-05,0.0009768307,0.99982285,9.840727e-05,0.0103702545,0.014048219,4.172325e-07,0.0025135577,6.0141087e-05
0.6580529,6.7949295e-06,0.0005271435,0.00030776858,7.8082085e-06,0.0026797354,0.0041105747,0.039472878,7.5101852e-06,0.016836584
0.0268642,0.004413128,0.0015565753,0.0008761287,2.1368265e-05,0.010935307,0.07451749,0.00034329295,0.89103544,0.17002842
8.6426735e-07,0.00015673041,0.001324147,0.9994954,0.980458,0.001562804,0.0086732805,2.3841858e-07,0.001109451,0.00025606155
4.2945147e-05,0.00031971931,0.001313448,0.4784481,0.00013750792,0.0009278655,0.025553405,9.983778e-06,0.9972906,0.00013366342
8.240342e-05,0.03862858,0.0012272894,0.00093334913,2.6136637e-05,0.022479028,0.99784875,6.3717365e-05,0.0058403313,0.00857687
0.0002526343,0.0028817356,0.6575748,0.0007583797,0.0023685694,0.0066511333,0.012025207,0.00021517277,0.98711646,0.00021323562
0.011582047,4.4584274e-05,0.003069073,2.002716e-05,1.937151e-06,0.0035911202,0.0075134933,6.172061e-05,0.9912988,0.00042542815
0.0001283884,0.090911984,0.0017371774,0.95615,0.0012756288,0.01250118,0.033834696,7.748604e-07,0.7667593,0.015525013
0.0004618764,0.94933635,0.013432056,0.006555736,0.00035971403,0.0052366555,0.01281026,2.2530556e-05,0.059505254,0.23449615
0.17265314,4.1097403e-05,0.0022335052,0.00012499094,1.9669533e-06,0.010615498,0.01509738,0.0013458729,0.88772583,0.0025704205
0.0037887692,0.42994547,0.013452351,0.0031366944,0.0013379157,0.036385298,0.59702176,0.00017112494,0.60795647,0.02504754
0.0002476275,0.00083711743,0.0018298328,0.99894136,0.003315419,0.008018941,0.016566962,9.23872e-07,0.071588665,0.00067421794
0.95769334,7.471442e-05,0.0017456114,0.00013917685,2.6494265e-05,0.020106971,0.024039328,0.00080132484,0.0011278093,0.0416227
2.6226044e-06,0.077495694,0.48574236,1.5169382e-05,0.14520073,0.09711641,0.9023454,6.055832e-05,0.08737275,0.0035210848
0.00016015768,0.0016938746,0.0012941062,0.0009379685,6.791949e-05,0.0032085776,0.39358497,0.00025761127,0.9835595,0.0016108751
0.95384973,2.2649765e-06,0.0013863742,5.38826e-05,4.9471855e-06,0.0047463775,0.008198142,0.012173861,9.483099e-05,0.015425444
0.013098091,0.00035953522,0.74026084,0.15305504,0.00086444616,0.0031319559,0.0047281384,0.0062476993,0.00011718273,0.004409224
0.98264116,1.9967556e-06,0.00090298057,2.2798777e-05,2.3543835e-06,0.0036815405,0.0054967105,0.0018428564,0.00028401613,0.016120821
0.0032610297,0.062245786,0.12750557,0.12678474,0.0010669231,0.00790894,0.037177503,5.2809715e-05,0.97807026,0.001987785
0.06741148,0.0005438328,0.0023279488,0.0001243949,6.28531e-05,0.015628666,0.03393233,0.0002233684,0.954494,0.0032372475
3.516674e-06,0.02351579,0.64211905,0.0039235353,0.04417622,0.8733558,0.017955571,0.00018835068,0.02132082,0.032829583
2.1249056e-05,0.016244978,0.0031114519,2.3245811e-06,8.34465e-07,0.019133389,0.9965353,0.000101834536,2.1487474e-05,0.011027038
0.7939934,2.0205975e-05,0.001713723,0.0005584359,1.3113022e-06,0.004150212,0.005145192,0.055759817,0.00011765957,0.031297177
0.26194993,0.00015813112,0.004550129,0.00072053075,2.092123e-05,0.014720589,0.0109270215,0.7754798,0.018491834,0.01847288
0.00030884147,0.88783336,0.004226655,0.16108197,0.00040391088,0.0071420074,0.10565892,4.827976e-06,0.9440323,0.029308468
0.00092336535,0.04060912,0.0012958944,0.0007317662,2.1368265e-05,0.045183003,0.99143696,0.00045496225,0.015508413,0.014661342
2.041459e-05,0.08380291,0.0022093952,3.632903e-05,8.428097e-05,0.041233867,0.9768654,2.5570393e-05,0.32788658,0.00084510446
0.25219226,0.00030243397,0.0022392273,0.000104635954,1.3709068e-05,0.022915035,0.7449912,0.0005298555,0.0018086731,0.008190751
0.00010710955,0.00015631318,0.003612101,0.997829,0.0039646327,0.005199164,0.020786345,9.307265e-05,0.00011023879,0.0034355223
0.8045951,5.4329634e-05,0.003126055,0.00013196468,1.0371208e-05,0.015471369,0.010402739,0.0007854998,0.23374638,0.007788241
0.9299995,0.00010740757,0.0052447617,7.18832e-05,1.6868114e-05,0.008857667,0.011420667,0.0010536909,0.00024199486,0.12022585
0.59395266,0.00025123358,0.0109905,5.2124262e-05,1.859665e-05,0.007732868,0.009822875,0.00061422586,0.1559355,0.11855656
0.9651763,2.0623207e-05,0.0012933612,0.000104278326,1.0639429e-05,0.008885056,0.016417146,0.003712386,0.0005749464,0.04423675
0.9567941,3.1352043e-05,0.002681762,8.997321e-05,4.0471554e-05,0.012054592,0.019654125,0.0016701818,0.00097474456,0.036400378
0.00046771765,0.0073474646,0.010508001,0.0017417669,0.00020253658,0.0037294924,0.022573382,2.1219254e-05,0.9974568,0.00012776256
2.2888184e-05,0.008243054,0.97129285,0.066511035,0.016916126,0.00606218,0.00684765,0.003994912,0.9413178,0.000700444
0.8842095,0.00014966726,0.004618317,8.547306e-05,5.3465366e-05,0.012099296,0.015734166,0.00021797419,0.023632944,0.040536493
9.655952e-06,0.006161064,0.14587718,0.00085395575,0.0056770146,0.9997488,0.07840207,0.00041043758,0.1965824,0.0005019009
1.2874603e-05,0.97895384,0.004452914,0.0051564276,0.009448737,0.0026462674,0.0053952634,5.662441e-07,0.9951886,0.00013053417
0.0030698776,0.0023899376,0.002874285,0.0006670952,7.1823597e-06,0.0053559244,0.026922703,0.0001744628,0.99413645,0.006568849
0.12723026,7.778406e-06,0.0036860704,0.00010967255,3.6656857e-06,0.007348329,0.003053695,0.9156034,0.001750499,0.020142972
0.34854978,6.955862e-05,0.0060158074,2.4795532e-05,1.6570091e-05,0.0065294504,0.00999108,0.00044187903,0.7962061,0.005178213
0.0025749803,0.020020455,0.011027843,0.033024967,0.00022393465,0.020067006,0.064971626,0.0017934144,0.9637449,0.046022862
9.199977e-05,0.99061465,0.004623741,0.006434083,0.005532086,0.014021844,0.0052039623,4.172325e-07,0.4089169,0.005535215
0.9854533,7.778406e-06,0.0013325214,3.8594007e-05,9.685755e-06,0.012540281,0.007014066,0.00020220876,0.00040742755,0.004049629
7.271767e-05,0.00074380636,0.004324913,0.00012677908,3.0100346e-05,0.9351748,0.050779313,0.004299104,0.008521318,0.052265733
3.0100346e-06,0.9932612,0.003198415,0.0026337206,0.00012850761,0.0049883425,0.048092335,3.7252903e-06,0.02113387,0.0014611185
2.7537346e-05,0.0684222,0.03637865,0.0039043128,0.0033463836,0.9999168,0.0548245,9.164214e-05,0.61354744,0.0010567904
0.71899575,4.351139e-05,0.0008574128,0.00022783875,5.275011e-06,0.019069731,0.014674604,0.0077418685,0.20545197,0.038293153
0.8302866,0.00021487474,0.005907744,5.725026e-05,6.386638e-05,0.020015955,0.027742952,0.0010257065,0.009229958,0.076709956
0.00012880564,0.94064605,0.020492524,0.016848117,0.0011600256,0.010424465,0.23157093,7.0631504e-06,0.07681969,0.017332017
0.71956044,0.00053563714,0.0051107407,0.00040709972,9.655952e-06,0.017899364,0.013614476,0.000695318,0.08328816,0.08006412
2.0861626e-06,0.9915757,0.036431313,0.0051341057,0.002998501,0.011161596,0.026925057,0.00023835897,0.0011948347,0.006320089
0.8719107,0.00016716123,0.0031180084,0.0002580285,2.193451e-05,0.013918012,0.022271305,0.0026643872,0.033863187,0.080794334
0.0003427863,0.9850907,0.0034045577,0.003042519,0.00041341782,0.0065571666,0.030631512,5.3048134e-06,0.06783539,0.025553942
0.9747214,8.645654e-05,0.0014081895,0.00028294325,8.374453e-06,0.0145150125,0.015129685,0.0008060336,0.00015673041,0.0122926235
0.017672926,0.0020667613,0.0013152361,0.00013291836,3.385544e-05,0.44839883,0.25371408,0.0011103153,0.4784988,0.0065563917
9.146333e-05,0.00016710162,0.023221254,0.0032750368,0.244151,0.98011976,0.010071605,7.531047e-05,0.016135782,0.0017431974
4.708767e-06,0.2931824,0.00086566806,0.00041133165,8.21352e-05,0.0012145936,0.0027318895,1.1920929e-07,0.98534966,0.0024011433
0.053841412,0.07463658,0.0052286386,0.0035168827,0.00023108721,0.018055886,0.08158654,9.164214e-05,0.6302554,0.15671328
0.9283205,2.6583672e-05,0.005599886,9.378791e-05,1.1026859e-05,0.009015441,0.008650452,0.0075725615,0.00056800246,0.016144425
0.9146737,4.735589e-05,0.0015437007,0.0002911389,2.3245811e-06,0.012405038,0.008197606,0.011150509,0.0047828555,0.060077757
0.0014668405,0.013279051,0.08001265,0.008463949,0.025550395,0.006087005,0.0465526,0.00012934208,0.9825113,0.031335562
0.000495702,0.006949991,0.07713169,0.0023464859,8.648634e-05,0.015330255,0.07363227,0.073427945,0.6593138,0.056225985
0.13997024,6.854534e-07,0.002960205,8.672476e-06,1.3411045e-06,0.0007112622,0.0018958151,0.9506409,1.3113022e-06,0.002955228
0.39331472,0.00039112568,0.0012790263,0.0003067851,2.7179718e-05,0.008423477,0.023616374,0.0003938079,0.75690097,0.04773259
0.9463628,5.7816505e-06,0.0009366572,2.2351742e-05,1.1444092e-05,0.0068776608,0.0073113143,0.0051454306,0.0030251145,0.013632745
0.00018236041,0.00061404705,0.0054985583,0.9989481,0.00067707896,0.0014374554,0.005369276,1.4305115e-06,0.00014734268,0.0012434125
0.00036892295,2.8342009e-05,0.0004747808,0.99950814,4.979968e-05,0.0013421178,0.00949803,3.8444996e-06,1.4394522e-05,0.00068604946
0.000433743,5.5134296e-05,0.00046804547,0.9997924,0.003749609,0.004515052,0.013050377,4.7683716e-07,3.7163496e-05,0.0003530085
0.013068289,0.016943991,0.008851349,0.0011705756,0.0003412366,0.015050143,0.054053575,0.00047507882,0.97829413,0.013414502
0.44016242,7.033348e-06,0.0013366342,0.00023704767,4.6789646e-06,0.005374521,0.0063779056,0.6163374,0.00014033914,0.021491975
0.65015626,7.3075294e-05,0.005943626,0.00020131469,1.0728836e-06,0.005925119,0.012547612,0.01653415,0.0012000501,0.25495005
0.5330314,1.14142895e-05,0.0052914917,1.9997358e-05,4.798174e-06,0.016960233,0.004251808,0.01083377,0.25315386,0.003961265
0.31893727,6.66976e-05,0.0034313798,0.4441536,6.6399574e-05,0.013060898,0.009283692,0.0002951324,0.0037560463,0.0052658617
0.8532314,0.000107854605,0.0011240244,0.0007674694,2.1666288e-05,0.014339298,0.033146024,0.009435713,0.00062561035,0.07432696
0.0072925687,3.7252903e-06,0.00058841705,0.00063863397,0.99003184,0.003238082,0.0071612597,0.00012785196,3.8981438e-05,0.0012962222
0.95853484,1.5109777e-05,0.004323721,7.125735e-05,1.3709068e-06,0.0055637956,0.004782647,0.0028473735,0.0025135875,0.0077997446
0.9796428,1.14142895e-05,0.0008973181,3.6478043e-05,3.3974648e-06,0.0102749765,0.01150012,0.0024212003,0.001510948,0.016769648
0.0018566847,0.0597201,0.14527348,0.008673012,0.041775346,0.00834474,0.030061841,0.00015076995,0.9859772,0.0015170872
0.8887695,3.7372112e-05,0.0029705763,0.0003426969,1.6391277e-05,0.0072544813,0.016075402,0.018969297,0.00025847554,0.08320138
0.0010510087,0.037147075,0.0054003894,0.0092437565,0.0008932352,0.15785801,0.53837365,9.351969e-05,0.9450975,0.004278809
1.2814999e-05,0.0009961426,0.0027507246,0.12115848,0.061829954,0.0061680973,0.01055342,6.1690807e-06,0.056743294,0.81940424
0.0024659932,0.0005648732,0.0025912225,0.99901867,0.0006248653,0.011934817,0.020032287,2.1457672e-06,0.0055101216,0.00055998564
1.2755394e-05,0.9822801,0.042320937,0.25043118,0.36133623,0.008561075,0.008960485,1.5497208e-06,0.26033735,0.0050121546
0.069502234,0.0044906437,0.0047846735,0.001774162,6.0796738e-05,0.012457043,0.043110073,0.00039994717,0.8850446,0.062472165
0.95510805,1.8626451e-05,0.002216071,6.595254e-05,2.115965e-06,0.014355153,0.0118383765,0.0015106499,0.033417284,0.007339984
0.0067453384,0.0015016794,0.0013249516,0.002047807,3.248453e-05,0.00088885427,0.03833589,1.31726265e-05,0.12801129,0.8580426
0.7103659,1.0162592e-05,0.002268076,8.1539154e-05,1.5199184e-06,0.005217433,0.004930407,0.41825935,0.0011470318,0.015944839
0.0,0.0016791523,0.73191667,0.015642226,0.003526479,1.0,9.229779e-05,3.886223e-05,0.46015054,8.6426735e-06
0.8176404,2.1755695e-06,0.0008030534,5.6803226e-05,2.682209e-06,0.007964015,0.0020622015,0.00016611814,0.0906398,0.0009018481
0.00042366982,0.01957354,0.78443265,0.0023703277,0.0060009956,0.0053935945,0.04938069,0.0003580153,0.9453852,0.00862968
0.08469051,9.059906e-05,0.0029233098,0.0006609857,5.581975e-05,0.0031123757,0.0062060356,0.08277884,6.8575144e-05,0.21932235
1.8537045e-05,0.22078419,0.00064492226,0.99665445,0.011748016,0.03231418,0.32268286,1.6391277e-06,0.049057245,0.0056750476
0.0018861592,9.718537e-05,0.0074447095,2.6375055e-05,2.026558e-06,0.005212724,0.015848875,0.007208675,0.0060948133,0.911085
0.94985545,3.6001205e-05,0.0048573613,7.772446e-05,1.6152859e-05,0.014212638,0.010997444,0.001868993,0.018853337,0.021590412
0.812708,0.00019159913,0.0049576163,0.0004989505,7.778406e-05,0.012962043,0.024544597,0.0008226335,0.026077926,0.08110705
0.000413388,0.024529576,0.0481942,0.0021950305,0.025327265,0.006007999,0.046658665,5.5611134e-05,0.9949386,0.0016325712
0.3221678,0.0011380911,0.0044820607,0.0004940629,0.000115036964,0.005661547,0.020727873,9.250641e-05,0.14947328,0.28698736
0.50941354,1.5437603e-05,0.000500232,7.674098e-05,0.0016426444,0.00554353,0.005695373,0.00021103024,3.528595e-05,0.005393535
0.0,0.95652765,1.1354685e-05,0.99856067,0.00045353174,0.0011443496,0.009889871,0.0,0.00018939376,3.927946e-05
0.0018745363,0.0008483231,0.0025841296,0.0029738843,1.2755394e-05,0.9938546,0.05921942,0.011749387,0.00055870414,0.0043619275
3.874302e-07,0.013471246,0.3898097,0.9991025,0.051533937,0.0034653842,0.004673809,0.0,0.08117095,5.018711e-05
0.64342546,0.0011323392,0.0032304227,0.00038063526,2.2768974e-05,0.020300388,0.064254135,0.00039878488,0.022491276,0.1471616
0.0009229481,7.2717667e-06,0.0006082654,0.9996853,4.592538e-05,0.0022686124,0.009085149,3.6358833e-06,0.00012892485,8.392334e-05
0.94973826,1.50203705e-05,0.0029777288,7.879734e-05,2.7388334e-05,0.009655803,0.009467363,0.024659991,0.0036056638,0.01255843
0.00021091104,0.0008786619,0.003824979,0.77502847,0.9887819,0.007439792,0.019786626,1.257658e-05,0.0066923797,0.008493692
8.85129e-06,0.9955901,0.0003566444,0.39220437,0.00017336011,0.0041883886,0.022777915,8.940697e-08,0.988928,0.00042685866
0.85318476,0.00050231814,0.0021683574,0.00016248226,9.530783e-05,0.019253224,0.063085556,0.0003579855,0.0058326125,0.07991573
6.1690807e-06,0.3003307,0.86136913,0.0107242465,0.025013655,0.008723766,0.08047062,0.0002850592,0.97921574,0.0011084676
0.8598179,0.0005635023,0.035302997,0.00037938356,4.976988e-05,0.02513367,0.029984325,0.0024381578,0.004254043,0.044281274
0.00016191602,0.0041265488,0.0031598508,0.0005951822,8.094311e-05,0.97847927,0.023718983,0.00014969707,0.8241801,0.022838831
2.95043e-06,0.06512144,0.15524125,0.005062729,0.0083942115,0.9993015,0.089668125,6.6787004e-05,0.27529883,0.00082069635
7.1674585e-05,0.0015354455,0.0122869015,0.9995775,0.00024592876,0.0086607635,0.0868696,2.8014183e-06,0.00081184506,0.0005007088
0.00019225478,8.326769e-05,0.0029490888,0.00019457936,8.6426735e-06,0.010070652,0.08141205,0.9677065,0.0009992123,0.020486623
0.8631458,1.6838312e-05,0.005567074,2.7149916e-05,3.093481e-05,0.0070281327,0.003420055,0.0007687211,0.0066772997,0.021769255
0.971537,1.5825033e-05,0.0028056502,4.3332577e-05,6.5267086e-06,0.011019975,0.008947343,0.009925574,0.0018955767,0.012248397
0.954707,4.053116e-05,0.008769035,0.0001142025,2.8312206e-06,0.007462889,0.007226765,0.0008098781,0.0024858713,0.02084127
0.43028235,0.0001603663,0.0021178722,0.00032633543,1.9311905e-05,0.0061375797,0.014045626,0.0007852018,0.7425173,0.026493102
0.624938,0.0011388361,0.01501599,0.00030830503,8.08835e-05,0.011487693,0.019294173,0.00018927455,0.10084787,0.081543416
0.006744772,0.0015019774,0.0013256669,0.0020479262,3.245473e-05,0.0008889735,0.03833589,1.3142824e-05,0.12800139,0.85803545
0.0006494522,0.020182312,0.017921627,0.01104784,7.212162e-06,0.0019751787,0.020663083,0.00012809038,0.45509225,0.8058896
0.0002565682,0.75315714,0.017124087,0.062262654,0.00045835972,0.0064599216,0.02461946,8.478761e-05,0.024349391,0.2544197
0.12664583,0.0010403693,0.0040450394,0.0002361536,1.9431114e-05,0.006662756,0.022040099,9.3996525e-05,0.9057953,0.028844506
0.75469166,0.00018167496,0.008008152,0.00025859475,1.1920929e-05,0.011365354,0.01542595,0.0010336936,0.0842765,0.07582644
0.0,0.99971354,0.0005387068,2.4080276e-05,0.0010453463,0.0109398365,0.004984647,0.0,0.07783398,5.2452087e-05
0.10862103,0.0031374395,0.0042392015,0.0010103583,3.2752752e-05,0.012223512,0.037795097,0.0004451275,0.93103087,0.039675146
0.031031966,0.022570878,0.00096428394,0.0019812584,3.6031008e-05,0.04474932,0.88812137,0.0015015006,0.013003111,0.064932644
0.6633584,7.399917e-05,0.0025891066,3.7670135e-05,3.784895e-06,0.007359624,0.0072823763,0.0002978742,0.39819273,0.052505225
3.3974648e-06,0.9987421,0.001239866,0.5644486,0.00085377693,0.0012235343,0.001429826,0.0,0.076859236,0.0012092888
0.0002811849,0.0056131184,0.007323593,0.9715965,0.004684627,0.013950586,0.069368154,0.00011628866,0.019495338,0.038731605
0.14239144,0.004299164,0.005669743,0.3887893,0.0043746233,0.036474854,0.030162364,0.00024408102,0.046864003,0.036747396
0.33594966,0.0039808154,0.0108909905,0.0014691651,3.9428473e-05,0.017385691,0.03235525,0.00054490566,0.37362704,0.05746916
0.06099102,0.0017194152,0.09243217,0.00026330352,6.830692e-05,0.0139299035,0.028068364,0.00031164289,0.8806184,0.0045095086
0.0008969009,0.0056979954,0.004558742,0.002492249,0.0010946393,0.005804062,0.030351907,3.361702e-05,0.99576664,0.0024412572
0.36656058,0.00055620074,0.0053603947,0.00045844913,1.2516975e-05,0.01432991,0.027476758,0.004280925,0.32897782,0.092089295
0.67172813,6.493926e-05,0.006172508,0.0003556013,2.0563602e-06,0.016855806,0.02050078,0.008760691,0.018099844,0.015447617
0.94553375,0.0002849102,0.0035538673,0.00051656365,9.730458e-05,0.027118564,0.03307149,0.00029602647,0.0029001236,0.028155029
0.98657507,3.0398369e-06,0.0007657409,9.715557e-06,3.1292439e-06,0.009277195,0.009760857,0.001501143,0.00041279197,0.00392431
0.00025719404,0.00020506978,0.00034579635,0.999674,0.000115424395,0.0057477057,0.082437605,3.516674e-06,1.3828278e-05,0.00031110644
0.084044784,0.00043722987,0.0016970336,4.9442053e-05,4.9471855e-06,0.0068470836,0.01141566,7.8082085e-05,0.9207374,0.008008093
0.90127474,3.8325787e-05,0.0026288629,8.571148e-05,4.4107437e-06,0.007973522,0.013523161,0.032533973,0.0068950355,0.032539368
0.9456874,1.2367964e-05,0.0020983815,0.0001681149,1.8775463e-06,0.004636824,0.009081334,0.0069565177,0.00012272596,0.08313683
0.05812964,0.0039381385,0.011170685,0.0006634891,0.00012990832,0.010356486,0.032875657,0.00059595704,0.96141624,0.00984785
0.9819703,9.4771385e-06,0.0010243952,4.1484833e-05,5.90086e-06,0.015708447,0.00992763,0.00054603815,0.0038781166,0.0032214522
0.53479266,0.00036111474,0.0033369958,0.00016602874,8.305907e-05,0.011543959,0.022916734,0.0002859831,0.38203865,0.05165848
0.0027678013,0.6022322,0.011352479,0.010143936,0.00037035346,0.015941799,0.2970748,5.0991774e-05,0.005429387,0.13759011
0.01677987,0.0054185092,0.00063455105,0.003762871,1.2874603e-05,0.06543985,0.9900514,0.00089013577,0.00047186017,0.0032304227
0.0108730495,0.0144559145,0.0043145716,0.0066648424,0.000107616186,0.15300202,0.23168626,0.0011367202,0.2511462,0.1921193
0.00907293,0.003055811,0.0021468997,0.012432724,4.9978495e-05,0.004288614,0.04537186,0.00018373132,0.97933036,0.038855076
0.8611033,0.00016754866,0.0038522184,0.00029233098,2.2351742e-05,0.0057986975,0.01265195,0.0017427802,0.00091546774,0.23014972
1.2785196e-05,0.006783366,0.008158833,0.010264695,0.9555148,0.003155768,0.043487996,7.212162e-06,0.97519493,0.0009114146
0.00036621094,0.98054254,0.012446284,0.026717931,0.0019070208,0.01473707,0.029062957,1.9967556e-06,0.045344293,0.008751303
0.0012063682,0.00046098232,0.0014618039,0.9992312,0.008227766,0.0107602775,0.018495739,8.6426735e-07,0.00039219856,0.001396507
0.9736522,1.4901161e-06,0.00064352155,2.1189451e-05,3.3676624e-06,0.004014075,0.0042562783,0.003751725,7.712841e-05,0.003968835
0.14638254,0.00038695335,0.003353864,0.00030690432,2.9832125e-05,0.005771011,0.008552998,0.24437037,0.00011974573,0.06891057
0.007195115,0.00115031,0.012442768,0.010929406,0.00025379658,0.9754932,0.04773125,0.00024098158,0.030132055,0.0048334897
1.257658e-05,6.005168e-05,0.00030961633,0.0035800934,9.149313e-06,4.2766333e-05,0.0005813241,2.1457672e-06,1.3023615e-05,0.99917483
4.0858984e-05,0.9943205,0.0050893724,0.025581062,0.0009955764,0.007181525,0.02576992,1.2516975e-06,0.9920932,0.0018218756
0.0,0.0055725276,0.00077942014,0.9999522,0.0011097789,0.008230895,0.3723288,5.9604645e-08,0.011825949,1.3798475e-05
0.09168485,0.00045716763,0.0068110228,0.0003889799,6.92904e-05,0.0106160045,0.033918858,0.0010709763,0.86074793,0.034555376
2.3841858e-07,0.02904421,1.1771917e-05,1.090765e-05,1.1920929e-06,0.006526351,0.8792972,5.9604645e-08,0.9991269,5.6266785e-05
0.8910686,0.00017946959,0.001998663,0.00023335218,3.7014484e-05,0.011718541,0.025925636,0.000626564,0.005207032,0.07776156
0.75211024,9.089708e-06,0.00079476833,2.5838614e-05,8.046627e-06,0.010188907,0.006705284,0.0006669462,0.28527832,0.0031163096
0.0026533902,0.00333035,0.004965067,0.00019016862,0.0014902055,0.0067486763,0.030819207,5.3286552e-05,0.9960073,0.0014139116
0.0034170449,0.13124514,0.012046248,0.0072900653,0.0018719435,0.033738405,0.103996396,0.00070026517,0.06225893,0.37882325
0.9202428,0.00025746226,0.019125104,0.00046733022,0.00022435188,0.016299605,0.009587824,0.0002759397,0.003244102,0.012925237
0.9666766,1.2665987e-05,0.0013804734,6.9618225e-05,3.516674e-06,0.008099705,0.01496917,0.0031164289,0.0006724,0.027990937
9.7602606e-05,0.0016127229,0.0037451386,0.008774638,0.0003145337,0.0012532473,0.006444752,0.00081947446,0.058561265,0.96834016
0.7236625,0.00023794174,0.002191931,0.0012147725,1.0043383e-05,0.011692464,0.050093144,0.0102745,0.0002606809,0.05232513
7.8856945e-05,0.9601343,0.027964205,0.0044613183,0.00043731928,0.011222601,0.07983506,2.2172928e-05,0.048557878,0.008142948
1.4156103e-05,3.3408403e-05,0.00023496151,0.9993318,0.62120336,0.0027606785,0.01715368,2.682209e-07,0.00021481514,0.0005195439
1.5795231e-06,0.00011193752,0.000112921,1.758337e-06,4.3302774e-05,0.0069539845,0.9999926,8.136034e-06,0.00043216348,0.0007567704
0.9499382,1.8179417e-06,0.002071619,2.938509e-05,1.013279e-06,0.002540946,0.003569156,0.013451904,3.3527613e-05,0.016955167
0.00017693639,0.032423973,0.93560165,0.008322388,0.004706502,0.01279825,0.04195282,0.00032615662,0.92234427,0.0014948547
1.1920929e-07,0.0038533807,0.029072315,6.020069e-06,0.0008201301,0.999977,0.033289015,4.7385693e-06,0.04216984,0.0006942749
0.9285107,0.00018146634,0.004973769,0.00010120869,3.761053e-05,0.01368019,0.0059262514,0.00027823448,0.010793775,0.015059203
0.0004695356,0.020131141,0.015085727,0.0020403266,0.000117361546,0.989925,0.14008188,0.011187971,0.005798012,0.017023325
0.0027694702,7.05719e-05,0.0019597113,0.00012922287,2.3841858e-07,0.0010730326,0.010150343,0.0015621781,0.99185586,0.0020247996
5.066395e-07,0.45532694,0.00498873,0.0010316074,0.0029953718,0.015678018,0.5831448,9.536743e-07,0.63565737,0.0036650598
3.889203e-05,0.9645238,0.008164436,0.7782378,0.004310459,0.009469479,0.014764428,1.7046928e-05,0.34636045,0.012064964
0.0027619004,0.0022173524,0.059902966,0.00016719103,0.00020191073,0.99437654,0.03780195,0.00040632486,0.44505736,0.00045660138
0.24640599,0.001740694,0.0060373247,0.0038222969,4.8190355e-05,0.0065976977,0.013782591,0.0004184544,0.0069656074,0.55753356
0.78614736,0.00023031235,0.0028855205,5.799532e-05,1.630187e-05,0.017281562,0.02135855,0.0003117323,0.18383706,0.02780211
0.61732674,3.0338764e-05,0.0020812452,0.00018122792,1.3411045e-06,0.008509129,0.005507648,0.008671373,0.4607957,0.012343109
0.0,0.0003886819,0.059207976,0.00095140934,0.0027098656,0.9991383,0.0008777678,3.1888485e-06,0.05699134,0.02167958
0.00025472045,0.08250368,0.5061739,0.034952104,0.00076401234,0.0072316825,0.025256366,0.0011117458,0.97719693,0.009988606
0.0150689185,0.07497701,0.016326308,0.013155639,0.037115395,0.005936593,0.024493754,1.4334917e-05,0.36393797,0.119108915
0.001205653,0.084789395,0.010854214,0.00773111,0.0002168119,0.11076689,0.214371,5.760789e-05,0.9674188,0.025821298
0.78580415,0.00036033988,0.0037589371,0.0028997362,3.1024218e-05,0.0116741955,0.018099219,0.010550827,0.013672262,0.17618379
0.48587975,0.0002424717,0.0050070584,0.00030568242,2.0861626e-06,0.0067659914,0.014646679,0.0005559623,0.118813634,0.2663908
0.0017391443,0.066547364,0.004665345,0.0022484362,3.963709e-05,0.60770124,0.4790465,0.0065416694,0.009150237,0.030198634
3.6120415e-05,0.0049109757,0.97301114,0.005297214,0.003188908,0.0053034127,0.01669091,0.00029492378,0.9805093,0.0002052784
2.0563602e-06,0.7046648,0.2842189,0.010346711,0.023259819,0.3691581,0.020549089,2.95043e-06,0.76623917,0.00040650368
0.00049474835,0.104524046,0.0042387247,0.51457715,0.004530877,0.011279732,0.5975681,9.387732e-06,0.11819914,0.22363457
0.08295497,0.0059487224,0.015821636,0.044386864,0.017544985,0.024912536,0.021244347,7.4893236e-05,0.0067247152,0.15774736
0.020160288,0.0008996725,0.91833186,0.00037270784,0.021636456,0.009740025,0.017308682,0.0020001829,0.0018307865,0.0022702515
0.49520805,0.00034084916,0.0036931634,0.00025114417,1.7344952e-05,0.011981159,0.012292057,0.00024411082,0.7342782,0.017102003
6.377697e-06,0.28835717,0.0107726455,0.9984962,0.20024881,0.011805624,0.0068306923,0.0,0.016372412,0.00018706918
0.96900177,6.699562e-05,0.0014871359,6.4611435e-05,7.688999e-06,0.019552857,0.027967483,0.0011377931,0.0013126433,0.016008168
0.29461965,0.00014775991,0.00045749545,6.5654516e-05,4.917383e-06,0.044073075,0.38044548,0.00054883957,0.0019381642,0.0041397214
0.00020766258,0.024139404,0.029782087,0.0005621016,0.2276665,0.005591035,0.018612653,1.1473894e-05,0.99377733,0.00052809715
0.00072321296,0.00021275878,0.0003119707,0.99944955,0.00084397197,0.00718683,0.015718877,1.1920929e-06,0.00016695261,0.00071531534
0.9018639,3.606081e-06,0.0015890002,4.0322542e-05,2.8401613e-05,0.0079758465,0.005213529,0.0024638772,0.00013267994,0.005672455
0.13595775,0.0002708137,0.0022902787,0.22715634,9.840727e-05,0.009929448,0.0036317408,7.867813e-06,0.002852559,0.014257342
0.0074655414,0.005547613,0.09028745,0.0023809075,0.5842024,0.009688854,0.017473966,8.150935e-05,0.87401426,0.0018664896
0.00097224116,0.0072686374,0.022990555,0.000916332,0.0003106892,0.9996917,0.034980595,0.00051409006,0.11155945,0.004886329
0.736761,0.00029438734,0.005080402,0.0017369986,7.688999e-06,0.006952852,0.009413689,0.00064632297,0.0004053414,0.25899112
2.1457672e-05,7.125735e-05,0.06971714,0.9996928,0.0018419623,0.00075021386,0.0027586818,2.2053719e-06,2.8908253e-06,0.00012433529
0.7648181,0.0004015863,0.011639029,0.00021249056,1.0997057e-05,0.0071897805,0.0064245462,0.00045600533,0.0027756393,0.048484325
0.0033261478,3.3438206e-05,0.004599601,0.00023072958,9.357929e-06,0.004633367,0.045565814,0.9817071,5.2303076e-05,0.024619997
0.016082615,0.0013208091,0.0020852387,0.00021642447,2.7567148e-05,0.0750505,0.52345365,0.0013345182,0.3147867,0.014695615
0.010270894,0.000119268894,0.0021490157,2.297759e-05,5.066395e-06,0.0022067726,0.013202697,6.0796738e-05,0.9947313,0.0012933314
0.9617857,2.4557114e-05,0.0018092394,7.370114e-05,1.1086464e-05,0.010603577,0.014355272,0.0015382469,0.0030971467,0.036170423
0.04744461,0.031157494,0.025665045,0.0029384792,0.0007969737,0.011305332,0.032757074,0.00011706352,0.66489697,0.11969057
0.969671,1.257658e-05,0.0047114193,3.963709e-06,5.185604e-06,0.009895742,0.018894821,0.00060519576,0.00065356493,0.0131007135
0.0061168075,0.001001358,0.00142771,0.9964391,0.001370877,0.021536082,0.023080409,3.8444996e-06,0.005835712,0.0053298473
0.6553015,0.00033706427,0.016341537,0.00058338046,3.2693148e-05,0.008518308,0.015836596,0.000605613,0.13321447,0.097822875
1.937151e-06,0.9544201,0.042396963,0.0007119477,0.013749123,0.02585876,0.007895559,0.00045859814,0.047952294,0.16089201
0.9476069,0.00013032556,0.0016996264,0.00046560168,2.2470951e-05,0.026195258,0.018618137,0.00111112,0.007876128,0.0137811005
0.902513,2.9832125e-05,0.004582405,8.368492e-05,5.0902367e-05,0.010070771,0.009546548,0.0181503,0.0023800135,0.047412366
9.88543e-05,0.00069221854,0.00083836913,0.999707,0.00047531724,0.032975763,0.109075695,1.3709068e-06,0.00014439225,0.00033813715
0.9682505,2.8192997e-05,0.0011186898,2.4467707e-05,6.020069e-06,0.012416095,0.012854427,0.0006777942,0.011023283,0.010087341
6.854534e-07,0.041766435,0.047095984,8.302927e-05,0.0035930872,0.99756503,0.025911957,0.0002027452,0.021843135,0.002470374
6.854534e-07,0.99461544,0.0014356971,0.000556916,0.007114351,0.001837641,0.017389417,2.9802322e-08,0.9963275,2.9921532e-05
0.94877464,6.67274e-05,0.0015719533,0.00011780858,9.834766e-06,0.015747458,0.022332132,0.00043556094,0.0061562657,0.042381465
0.9735781,6.4969063e-06,0.001855582,0.00017648935,8.195639e-06,0.010421872,0.0053492785,0.0014550686,0.0028170347,0.0047552586
0.046619266,0.00038200617,0.00047579408,0.0001243949,2.3841858e-05,0.018326998,0.93540734,0.0011734366,0.00031402707,0.032146215
0.016382337,2.4199486e-05,0.0028090477,0.00011497736,1.7285347e-05,0.0056123137,0.010760874,0.97947013,2.4586916e-05,0.008650392
0.0010709763,0.032639146,0.017581463,0.0006605387,0.00048342347,0.881786,0.47844425,0.0008133054,0.022665858,0.015620291
1.1920929e-07,0.9984211,0.0044811964,3.0726194e-05,0.00023594499,0.14580774,0.01507619,2.9802322e-08,0.5450991,0.0002580285
0.9381697,0.00014472008,0.002085805,0.00023302436,1.5705824e-05,0.015970826,0.029039204,0.001068145,0.0021055937,0.08283171
0.009708375,0.0054320693,0.0045715272,0.039025366,8.7589025e-05,0.0064528584,0.04225561,0.000295043,0.9862222,0.014104605
0.9877808,4.4703484e-07,0.0010156035,4.5895576e-06,9.23872e-07,0.0041407943,0.0021163523,0.0015997291,0.00049322844,0.004044533
1.9967556e-06,2.0891428e-05,0.0006803572,0.9999554,0.24885023,0.002596736,0.004897058,1.1920929e-07,0.00023016334,1.1861324e-05
0.085921705,0.019379467,0.0025105476,0.0022759736,1.0281801e-05,0.52749866,0.1435433,0.0004105568,0.010668665,0.052660435
0.64443785,7.1823597e-06,0.0027008653,0.0001745522,2.5570393e-05,0.0038234293,0.013229281,0.27465686,3.1858683e-05,0.03768477
5.403161e-05,0.15806323,0.008751035,0.00019729137,0.00048419833,0.006384462,0.7624018,3.5762787e-06,0.9335363,0.025845885
0.6651984,0.0006709397,0.005352974,0.0013024807,2.7298927e-05,0.009317666,0.020168096,0.001182586,0.037215143,0.23867548
0.96013916,1.5199184e-05,0.0012968481,4.249811e-05,4.23491e-05,0.016008258,0.017854035,0.0007458925,0.0018619299,0.01605454
0.97251856,9.357929e-06,0.0033612847,3.3527613e-05,1.7166138e-05,0.012817264,0.006039083,0.0030008256,0.0034806132,0.0045621395
0.15676975,0.00018996,0.0013338625,8.952618e-05,1.8268824e-05,0.006837666,0.016688704,0.0002501905,0.9287013,0.010487139
0.093025655,0.0024110675,0.009795517,0.0035477579,5.8799982e-05,0.018139184,0.033884227,0.0012534857,0.92298627,0.034647882
0.004686922,0.006603718,0.009358406,0.0015852749,1.5288591e-05,0.0056354105,0.065253586,0.00062298775,0.2738065,0.6936556
0.6400327,7.158518e-05,0.0049770176,6.097555e-05,1.0192394e-05,0.010394931,0.016578972,0.001352489,0.325131,0.017866433
1.6182661e-05,8.404255e-06,6.824732e-05,0.99997354,0.00016272068,0.0006508231,0.006244242,1.4901161e-07,0.00015032291,0.00021338463
0.014091432,0.00067842007,0.0045748055,0.0003349185,6.943941e-06,0.012432575,0.03907621,0.004639864,0.92114663,0.061962843
0.00022515655,0.0041998923,0.14276114,0.9994496,0.018036216,0.008541077,0.02171418,1.2516975e-06,0.057133377,0.000119656324
0.00012207031,7.6293945e-06,0.0007249415,0.9998711,0.0022686422,0.0013686717,0.006560862,1.5795231e-06,7.301569e-06,0.00014707446
0.95325065,3.170967e-05,0.0018205941,0.00010308623,1.1742115e-05,0.008769393,0.0115198195,0.0056031346,0.0022677183,0.038065493
0.006254047,0.00090017915,0.0041487813,0.0015487671,0.226778,0.0075559616,0.016015232,0.00017634034,0.70401603,0.006259352
1.4901161e-07,0.0030128658,0.0015852749,0.8437145,0.9838933,0.0076549053,0.78262603,3.5762787e-06,0.0052746236,0.0007991195
0.9804879,2.4437904e-06,0.0017271936,1.1086464e-05,5.066395e-06,0.007409811,0.010699064,0.0011447966,0.00096696615,0.00484553
0.0045040846,0.026332319,0.01504907,0.002155602,0.00033569336,0.00611341,0.054667443,8.663535e-05,0.9898881,0.0106875
0.0034143627,0.02791351,0.08350408,0.06236726,0.007266164,0.011715859,0.05558911,8.404255e-05,0.9852201,0.0010955334
0.0058342814,0.0018843412,0.0012508035,0.00068202615,0.00015354156,0.0040278435,0.04391721,5.9604645e-05,0.9948107,0.0066630244
0.0005186796,0.96711075,0.025039375,0.01584065,0.0017822683,0.023180127,0.10757306,7.5906515e-05,0.38315946,0.050463885
0.00073871017,0.0059141517,0.0053221583,0.9688793,0.23534232,0.061995983,0.0671958,3.6001205e-05,0.0015451014,0.017625302
0.00010120869,0.017841727,0.89480495,0.00340873,0.0065065324,0.9789596,0.047825366,0.0011791289,0.036994874,0.0004069209
0.057782084,0.001514852,0.010546058,0.0024962127,8.058548e-05,0.6244158,0.05251661,0.020068437,0.000987649,0.04385093
0.0005544424,0.011657953,0.043194592,0.003026694,0.00015035272,0.9992544,0.07269269,0.0005918145,0.03775823,0.0065209866
0.96349216,4.9203634e-05,0.0035312176,6.696582e-05,2.5212765e-05,0.018677354,0.018940628,0.0053582788,0.0063276887,0.015039355
0.00043118,0.0018440485,0.000539273,0.00018292665,3.4034252e-05,0.002824515,0.014100105,2.8342009e-05,0.99946856,5.6952238e-05
0.03631708,0.0006723404,0.0019535422,0.00018024445,2.0563602e-06,0.006055355,0.026305884,0.0003722906,0.9817254,0.0043694377
0.006513804,0.0048356354,0.013502598,0.0036588907,0.0006878376,0.0073198676,0.041596174,0.0013130009,0.9900468,0.010329872
0.64041036,0.00010749698,0.0019398332,0.0002644658,2.026558e-06,0.012763262,0.0095537305,0.0022743046,0.5479109,0.07595667
0.005750358,0.0028839707,0.0029349923,0.00033566356,1.1831522e-05,0.0038745105,0.03242001,4.452467e-05,0.9935743,0.007302344
0.0025931895,0.7966284,0.0124973655,0.0031233132,0.00022485852,0.009384304,0.042577744,0.000115692616,0.06603187,0.1857819
0.0001964271,0.009337574,0.1867401,0.9955548,0.12027559,0.013468891,0.03199643,5.751848e-06,0.24237308,0.0008697212
0.9503107,9.655952e-06,0.0021597743,6.172061e-05,3.2782555e-06,0.013069242,0.0068778098,0.0012646914,0.02419585,0.0053055286
0.014650971,0.0005094707,0.0024829507,6.237626e-05,5.6117773e-05,0.005105257,0.026232153,0.00021830201,0.98915493,0.002521634
0.22850734,1.2129545e-05,0.0013149381,3.4451485e-05,9.569526e-05,0.00864166,0.011317164,0.0012763441,0.76866555,0.0030839443
3.8653612e-05,0.6492481,0.14415845,0.0049928427,0.0049290657,0.020361423,0.070591,4.044175e-05,0.9889134,0.0021914244
0.06985545,0.0030901134,0.11363563,0.0026102662,5.6177378e-05,0.008795887,0.053858817,0.0026361942,0.01010406,0.062957585
0.4808778,0.0029448569,0.0057346225,0.0016407669,0.00013297796,0.028651863,0.054308057,0.00052163005,0.007062465,0.24782783
0.96294034,1.4454126e-05,0.0021645427,0.00010815263,6.145239e-05,0.01427713,0.012110829,0.0013519526,0.00069734454,0.014882624
0.8629687,4.953146e-05,0.0047712624,0.00029724836,5.185604e-06,0.008553594,0.013006002,0.010019094,0.008833021,0.07991475
0.87121975,8.261204e-05,0.0039444864,0.00016221404,3.1590462e-06,0.008038133,0.0054199696,0.0028896332,0.0031954348,0.048628747
2.8163195e-05,0.6368321,0.118071556,6.610155e-05,0.0021906197,0.00766477,0.16656601,9.980798e-05,0.007817805,0.019332558
0.10605398,0.0015750825,0.007147908,0.0011975169,6.0915947e-05,0.013859481,0.035599142,0.0006509423,0.92557335,0.019611001
2.9534101e-05,0.98466337,0.059418738,0.08386454,0.024651468,0.009013474,0.0014187694,1.1503696e-05,0.44358113,0.003040731
0.86972,9.119511e-06,0.004053086,2.3335218e-05,0.0001039207,0.009411037,0.005911976,0.0005657673,0.045527786,0.00639233
0.92766845,8.189678e-05,0.004630685,5.4121017e-05,6.300211e-05,0.015724897,0.013822943,0.0006686151,0.027422667,0.0184941
4.0233135e-06,0.26063412,0.15179211,0.9780263,0.34393036,0.013315409,0.06534493,2.682209e-06,0.012602776,0.009475857
6.198883e-06,0.9943984,0.029184699,0.0052264035,0.004381746,0.007871777,0.012020975,5.5849552e-05,0.24007326,0.0117121935
0.022448778,0.0018169284,0.0029163659,0.0003528595,3.3199787e-05,0.004044473,0.028207839,7.1913004e-05,0.98710084,0.01187259
0.8676683,0.0007826686,0.004019469,0.00026538968,1.1712313e-05,0.026154816,0.069750756,0.00044208765,0.0043803155,0.054463208
0.0009146631,0.041811734,0.004487127,0.010227919,0.000933975,0.005453825,0.06349516,9.581447e-05,0.9908863,0.0065083206
0.00052049756,0.0064685047,0.059117973,0.011283994,0.70289445,0.004384935,0.04603085,5.0514936e-05,0.96763456,0.0018175542
0.9699568,1.2665987e-05,0.0019735992,9.7841024e-05,2.026558e-06,0.006215602,0.0047941804,0.004671693,0.00042831898,0.0051739514
0.00016906857,0.005301833,0.0036742985,0.0009793341,5.2660704e-05,0.94049346,0.053940237,0.00010946393,0.76215094,0.085599035
0.0,0.594129,0.15883413,0.0031846464,0.016848564,0.9992372,0.017763019,1.4007092e-06,0.8623199,8.85129e-06
0.026680112,0.00014430285,0.001819402,0.9733128,6.7949295e-05,0.0036135316,0.0075249076,3.120303e-05,0.00038725138,0.004785657
0.9644861,7.4505806e-06,0.0013662875,0.00011253357,4.172325e-07,0.0038358867,0.0047675967,0.0047216713,0.0012555122,0.007883549
0.26773492,0.00022366643,0.005559057,0.0007233918,5.9604645e-07,0.0025922656,0.011567026,0.0880464,0.0007388294,0.15883899
0.032263547,0.0088097155,0.78546673,0.0031569898,0.0049799383,0.012129605,0.0066184998,0.0010669231,0.22205088,0.0018951893
0.72014725,6.338954e-05,0.0022413135,0.00017127395,1.9580126e-05,0.006466627,0.007101238,0.073776424,0.00031074882,0.08373767
0.9684921,1.1056662e-05,0.0018415451,7.048249e-05,2.5331974e-06,0.0060790777,0.009828776,0.004585445,0.00054752827,0.036995083
1.6331673e-05,0.39433682,0.029159397,0.974064,0.010038972,0.008552462,0.14717135,1.32620335e-05,0.7778694,0.002094835
0.89449716,9.536743e-05,0.0010404289,0.000113874674,7.2181225e-05,0.015229315,0.052054375,0.0029676557,0.00046688318,0.0313752
0.25143233,0.00091150403,0.0051654875,0.0014460683,5.8054924e-05,0.017578483,0.035805017,0.0034947693,0.76662767,0.034116864
0.0019874275,0.066390485,0.00097188354,3.325939e-05,5.9068203e-05,0.017482847,0.90913534,6.16312e-05,0.12802815,0.025524437
2.5629997e-06,0.00042283535,0.001403898,0.9996767,6.5118074e-05,0.008002609,0.09215161,4.8965216e-05,0.0010283887,0.000428468
0.9636973,1.963973e-05,0.0024561584,4.094839e-05,0.0002861917,0.01571098,0.006971389,0.0002848208,0.0008802712,0.0040924847
0.93263894,3.0726194e-05,0.0035150945,6.80089e-05,1.1026859e-06,0.005387455,0.010968119,0.0016055703,0.00058475137,0.04776919
0.00044453144,0.02322483,0.013116479,0.01955539,0.0001911223,0.98779494,0.11682823,0.00068962574,0.02049321,0.087397575
0.0007301569,0.00072458386,0.0023204088,0.000518322,1.886487e-05,0.0048806965,0.08033827,0.0060000718,0.98949707,0.0077188313
0.00015449524,0.022598386,0.0007510781,0.0008883476,1.2546778e-05,0.0062357485,0.3028128,0.00014624,0.9957922,0.00064367056
0.004810244,0.0057210624,0.0033402443,0.00034219027,4.4614077e-05,0.0060888827,0.030486494,8.010864e-05,0.9947593,0.0018666089
0.00017362833,0.28200036,0.8302673,0.031808913,0.015882581,0.011969119,0.07111621,0.00011408329,0.2019181,0.040843368
0.93319726,0.00013932586,0.0017540157,0.00035238266,1.3828278e-05,0.014391601,0.025337875,0.0019059777,0.0022075772,0.109621465
0.006744772,0.0015019774,0.0013256669,0.0020479262,3.245473e-05,0.0008889735,0.03833589,1.3142824e-05,0.12800139,0.85803545
0.011951119,0.00027927756,0.0063037574,0.0022005439,0.982484,0.0068951845,0.021597117,7.084012e-05,0.0013977885,0.004054457
0.77596396,0.0013231039,0.0050575435,0.0017721057,5.7280064e-05,0.028308958,0.022351861,0.00053334236,0.0054076016,0.1719738
0.075494826,0.0010342598,0.0086963475,0.001018405,3.1232834e-05,0.0133064985,0.085345894,0.0059884787,0.017778695,0.38109693
0.94926083,1.4394522e-05,0.0025546253,0.0002757311,1.1026859e-06,0.011982232,0.005662948,0.0016666949,0.011848986,0.011896044
3.924966e-05,0.0002555251,0.0005657971,0.008064598,0.004301399,0.00017824769,0.011702985,3.5464764e-06,0.00074997544,0.99632967
0.00620386,0.0010122657,0.0027351975,0.00020638108,2.7418137e-06,0.009179354,0.08580485,0.0025905967,0.8997155,0.044193864
0.34528613,0.008477867,0.010697931,0.023844868,0.00013485551,0.025772542,0.037380278,0.00016474724,0.4628493,0.034517825
0.80821216,0.00029879808,0.007279873,0.00046429038,9.62615e-05,0.011518985,0.016227514,0.00051537156,0.017689317,0.050157875
1.14142895e-05,0.0014906228,0.00046095252,2.9802322e-08,7.95722e-06,0.050005406,0.99956846,8.404255e-06,0.004011035,0.00022563338
1.1920929e-07,0.0028475523,0.01714757,0.0009254515,0.00026199222,0.99999124,0.0044739842,1.2606382e-05,0.2186943,0.0018084943
0.0007015765,0.00050130486,0.004089415,0.96836174,0.0037735105,0.0038964748,0.012444437,4.2051077e-05,0.00070488453,0.02562648
0.9065427,0.00012457371,0.005015403,0.0003555119,0.00020810962,0.020779312,0.02257353,0.004092127,0.00054320693,0.05643305
0.0001218915,0.00018024445,0.0012679398,0.9998934,6.645918e-05,0.0033482611,0.009738296,3.2782555e-07,0.0008542836,0.00022029877
2.5629997e-06,0.86786133,0.024513781,0.99570096,0.023492724,0.010991842,0.08089611,4.7683716e-07,0.411616,0.00012862682
0.9625411,1.3828278e-05,0.002483517,1.257658e-05,5.5134296e-06,0.011401802,0.004860878,0.00933665,0.00016736984,0.022729278
1.4275312e-05,0.0042782724,0.004492402,0.014573753,0.77769184,0.98769826,0.03454101,0.00016066432,0.0015088916,0.00045198202
9.49204e-05,4.529953e-06,0.00087338686,0.99952453,0.00019940734,0.0011419356,0.0031428933,1.0609627e-05,2.7120113e-06,0.00064843893
0.0012780726,4.2647123e-05,0.00031924248,6.8455935e-05,2.8908253e-06,0.0013783276,0.018000573,0.00063699484,0.99878097,0.0001616478
0.0005065203,0.00012049079,0.0008068979,0.99796426,4.887581e-05,0.004256189,0.0044578314,7.748604e-07,0.001812458,0.00035738945
0.0033540428,0.030768454,0.005258292,0.009791344,0.00016307831,0.0066901445,0.067902625,4.7415495e-05,0.06629205,0.82922214
4.4703484e-07,1.1920929e-07,1.5676022e-05,0.9999996,2.115965e-06,0.00015592575,0.0024030209,0.0,1.1920929e-07,1.7881393e-06
0.0064203143,0.06977913,0.002988577,0.00094658136,0.00036162138,0.047662497,0.6417141,0.00094407797,0.74230176,0.020506054
0.96746624,3.5464764e-05,0.001907289,0.00015386939,1.9103289e-05,0.01650545,0.016002744,0.0022067726,0.00040578842,0.0140579045
0.9832883,2.82228e-05,0.0016219914,0.00018548965,2.2649765e-06,0.008556277,0.011945367,0.001897186,0.00015982985,0.018475413
0.18468654,4.836917e-05,0.0036856234,0.0044312477,5.096197e-06,0.004851371,0.0062201023,0.25839427,0.002664715,0.07262662
0.0015459061,0.0058478415,0.002455771,0.0035711527,2.9206276e-06,0.032744557,0.8704103,0.009062797,5.5342913e-05,0.007800877
1.2785196e-05,0.0015396774,0.00076299906,0.99950683,0.004426211,0.011370152,0.042512387,2.0861626e-07,0.8291944,4.2051077e-05
0.0018861592,0.28122872,0.018214524,0.0090530515,0.00064495206,0.51648164,0.048351765,0.00024864078,0.35309553,0.09297037
0.1497249,0.001467377,0.0052420795,0.00032129884,3.144145e-05,0.007172525,0.03035289,0.00031879544,0.40263754,0.24740785
0.00014591217,0.13240078,0.09071803,0.0038543642,0.0018559098,0.0066764057,0.64678836,5.799532e-05,0.89093834,0.024556398
0.28737378,1.7851591e-05,0.0027127266,0.00012457371,1.1712313e-05,0.006144434,0.0094102025,0.81168693,0.00020119548,0.01225695
0.03534347,0.0021693707,0.0042812526,0.00063988566,5.8174133e-05,0.0053230226,0.031523466,0.000102996826,0.9652904,0.029970527
0.9022305,0.00014600158,0.007876188,0.0006186962,1.7046928e-05,0.013060063,0.010301948,0.005164832,0.00092205405,0.087840915
0.9313247,9.924173e-05,0.0022726655,0.00014692545,1.1116266e-05,0.018234402,0.017726213,0.0012090206,0.02600199,0.055871844
0.0077275336,0.0025609434,0.9373708,0.0028061569,0.0029422343,0.00983429,0.011449099,0.0013900697,0.3244298,0.0058847964
0.9704225,1.1116266e-05,0.0021426976,4.1246414e-05,1.7285347e-06,0.0072657466,0.007880628,0.0033882856,0.00341478,0.015998304
0.0010733008,0.013576627,0.002374053,0.003004551,1.0162592e-05,0.003646791,0.038844287,0.00095164776,0.96802,0.07332492
0.22001836,0.0035181344,0.0029343069,0.0005930066,3.5703182e-05,0.03037563,0.050393313,0.00036287308,0.80527055,0.035776764
0.95071137,2.3901463e-05,0.0064969063,3.97861e-05,3.6865473e-05,0.011967242,0.0077909827,0.00026783347,0.002204448,0.016935557
0.0783979,0.0045029223,0.0071187317,0.00045970082,5.9872866e-05,0.0057112277,0.04753241,0.00014346838,0.75416434,0.1225864
0.38998377,0.00046798587,0.0031756759,0.00063961744,0.0001733005,0.008530498,0.016450882,0.00019365549,0.68504286,0.019530684
3.221631e-05,0.012698948,0.887949,0.0030841827,0.0019708574,0.0024746656,0.039793193,0.00093349814,0.04461232,0.12961012
1.9103289e-05,0.0014444292,0.007324904,9.8109245e-05,0.018698364,0.0020658672,0.008697629,2.592802e-06,0.99456763,4.8041344e-05
0.004055977,0.011866629,0.030612111,0.013327748,0.62977874,0.013042271,0.12514657,0.0003670454,0.09146923,0.13063255
0.42168182,2.2470951e-05,0.0014725924,6.8843365e-06,1.3053417e-05,0.006933868,0.005466968,0.00011229515,0.7951257,0.0018478632
0.0069095194,0.000120431185,0.0010549724,3.0100346e-05,3.0696392e-06,0.0023166537,0.016111314,0.000109642744,0.9965565,0.0010069907
0.93602276,0.00023826957,0.0015262365,8.159876e-05,2.4408102e-05,0.021660984,0.05300653,0.0033528507,0.0013239384,0.0223535
0.09075028,0.0013941526,0.0030448735,0.00054240227,0.00019904971,0.009713411,0.039913267,0.00022059679,0.8372474,0.05293536
3.257394e-05,0.03046009,0.31779605,0.005484611,0.0077925026,0.9770029,0.058914274,0.00050219893,0.97554415,0.00023815036
0.11716741,0.00309062,0.006737441,0.00064343214,2.5629997e-05,0.012193203,0.06398553,0.0014158785,0.8733667,0.0068711042
0.42863092,3.504753e-05,0.0007427633,4.887581e-05,3.7252903e-06,0.010487169,0.008496523,0.0006494224,0.6349463,0.0025047958
0.9661392,1.7136335e-05,0.0013850629,9.173155e-05,0.00013235211,0.013471484,0.0128043,0.0005585551,0.0042763352,0.012689024
0.011044979,0.00070902705,0.001431942,0.00010159612,3.105402e-05,0.0046831965,0.035558492,8.5651875e-05,0.99276125,0.0059003234
0.0037029088,0.0004904568,0.98470485,0.004537314,0.0034591556,0.0072262883,0.005964339,0.0039642155,0.0034241974,0.006904632
0.94381356,7.480383e-05,0.0038017929,7.2956085e-05,2.5868416e-05,0.011469215,0.015435815,0.00025996566,0.0028489828,0.039230555
0.8586005,0.00017237663,0.0018762052,0.00016731024,0.00016191602,0.018009156,0.047502548,0.0006785989,0.006235361,0.08320463
0.8803582,6.2584877e-06,0.0018567741,0.00011846423,1.2427568e-05,0.003365159,0.00917083,0.04252252,3.874302e-05,0.031309187
2.3841858e-07,0.27080035,0.7381364,0.034436345,0.010991305,0.9416375,0.086535364,4.0858984e-05,0.94851816,0.00028541684
0.9395148,0.00016281009,0.006982237,0.00025299191,2.8371811e-05,0.016065687,0.012834191,0.0019928813,0.025946379,0.0217762
2.0563602e-06,0.99488187,0.0016098917,0.00057575107,0.00010210276,0.011047214,0.014874518,1.1920929e-07,0.9804568,0.0010117888
0.0,0.99995077,0.0002270937,1.1622906e-06,0.0005078912,0.0105801225,0.00028803945,8.940697e-08,0.04178396,0.00044196844
0.6102101,5.8710575e-05,0.0016195774,2.849102e-05,1.2814999e-05,0.011692166,0.009348482,0.00027614832,0.46080142,0.008495629
1.937151e-05,0.0030127764,0.008290231,0.9979439,0.8978816,0.0076409876,0.012542784,7.748604e-07,0.0026336908,0.00208202
0.83772856,3.8027763e-05,0.005659938,0.00010356307,8.225441e-06,0.013220012,0.0075199604,0.00088599324,0.23150459,0.0033316314
0.0022518337,0.0009737611,0.0007315278,0.0002644062,5.7816505e-06,0.003668815,0.020757556,9.9271536e-05,0.972499,0.0430049
0.0020515919,0.09247124,0.0022015572,0.00031509995,3.7550926e-06,0.03297612,0.6168821,8.285046e-06,0.054463804,0.0050750375
0.00071942806,3.33786e-06,0.0005111098,0.99967873,3.927946e-05,0.0012501776,0.005628228,8.46386e-06,1.3828278e-05,0.000113755465
1.9669533e-06,0.0028666854,0.00069385767,1.7881393e-07,3.1292439e-06,0.0025155544,0.9931812,6.5773726e-05,0.0041416883,0.00826326
0.8626035,7.1555376e-05,0.005943656,0.00044864416,6.6161156e-06,0.022539139,0.010476351,0.0021557808,0.042248517,0.020812333
0.9478612,2.6404858e-05,0.006482929,5.1766634e-05,3.0875206e-05,0.011551946,0.007998735,0.03809768,0.00064489245,0.0057714283
3.427267e-06,0.07752925,0.33978274,0.003675282,0.12478894,0.9995504,0.012557536,0.0003221035,0.032648295,0.0020929277
0.0018184483,0.0004826486,0.0024917722,7.715821e-05,5.3346157e-06,0.0023964643,0.017298788,0.00013923645,0.9981889,0.00075274706
0.00016212463,0.11953768,0.18785027,0.8880442,0.01602751,0.004438162,0.027862549,3.8444996e-06,0.96829784,0.0006122291
0.45411325,0.00048938394,0.002709508,0.00089874864,2.4199486e-05,0.012493134,0.029060036,0.0005030632,0.3514207,0.13918635
0.00056278706,0.612574,0.002869308,0.0019151568,0.0002835989,0.013329953,0.30858806,7.4505806e-06,0.9389054,0.038424194
0.9348868,3.2484531e-06,0.0016537011,6.702542e-05,2.604723e-05,0.0049693584,0.005699873,0.0048246384,0.00022447109,0.03607741
0.96710455,5.543232e-06,0.0009354651,1.719594e-05,5.543232e-06,0.008186787,0.008584946,0.018881857,0.00018203259,0.009476662
0.0001154542,2.783537e-05,0.00023704767,0.9999836,0.00040128827,0.00325796,0.0137040615,1.1920929e-07,2.8759241e-05,1.40964985e-05
0.9491532,0.00018596649,0.002288431,0.000107735395,3.7044287e-05,0.033242404,0.04741776,0.0015293956,0.00029981136,0.007262677
0.064210504,0.013580859,0.01039657,0.00070628524,4.938245e-05,0.019911945,0.06102565,0.00019735098,0.7746341,0.10730606
0.1841929,2.69413e-05,0.0006380975,2.3335218e-05,5.90086e-06,0.007896602,0.012299806,0.85181797,0.008761108,0.0038678348
0.0025320947,0.002404064,0.003653884,0.00058567524,7.1793795e-05,0.0025154054,0.018952847,9.8228455e-05,0.99794716,0.0005708039
0.008431047,0.00011768937,0.0020478666,0.99847543,3.632903e-05,0.004005432,0.011613071,4.6789646e-06,0.0014491379,0.00052034855
3.5762787e-07,0.98536754,0.021031588,0.017991751,0.57672375,0.004707277,0.027854979,5.155802e-06,0.021483839,0.0030282438
1.3649464e-05,0.011138171,0.017029911,0.0009624958,0.005300671,0.0012537837,0.0050528944,9.834766e-07,0.00441584,0.990718
0.0012089312,0.0006044805,0.008710802,0.99757683,0.07610378,0.013436407,0.02002573,3.07858e-05,0.00072813034,0.0029582083
0.002026379,0.00031226873,0.005811572,0.998561,0.0004914701,0.007505387,0.011542708,1.5497208e-06,0.004974574,0.0008600056
0.03060621,0.00034284592,0.0037988126,0.00016456842,1.963973e-05,0.0057014227,0.017289966,0.00035476685,0.96556604,0.005230993
0.81751525,0.00017949939,0.0032834709,0.00037947297,1.3023615e-05,0.018424094,0.024276644,0.0019215941,0.0736098,0.08443317
0.9792198,2.592802e-06,0.0005220771,1.719594e-05,2.682209e-06,0.008770347,0.008223563,0.0077840686,0.00025612116,0.0044896007
0.0003144145,0.0011164844,0.0024036765,0.034439296,0.00016081333,0.023760289,0.9420752,0.007774353,0.00078612566,0.05684963
0.16914949,0.0005989969,0.0017182827,0.001748234,9.688735e-05,0.0068290234,0.03088963,0.0002593696,0.72413355,0.11278713
0.955969,4.2915344e-05,0.0014383197,9.62615e-05,4.029274e-05,0.013051093,0.018975526,0.0019215643,0.0011736453,0.053337187
0.9503577,2.1755695e-06,0.0025140643,2.7626753e-05,7.6144934e-05,0.005832553,0.00811848,0.0026902258,0.00013512373,0.011897683
0.0004913211,0.0017579496,0.007723242,0.0011965632,1.8566847e-05,0.016778976,0.09511718,0.6776203,0.0047240257,0.044104785
0.96071875,4.9442053e-05,0.0043577254,7.030368e-05,7.6293945e-06,0.017331958,0.019429862,0.0010768175,0.004467845,0.012464374
0.07343772,7.1525574e-07,0.0013053715,3.1232834e-05,3.4868717e-06,0.0037335753,0.0031356514,0.9813336,5.465746e-05,0.0010967851
8.5800886e-05,0.009894282,0.91757697,0.009571582,0.005071759,0.0035276115,0.024397105,0.0005080998,0.9852749,0.00069111586
0.0038597882,0.0010802746,0.9725532,0.0026905835,0.0642229,0.00964433,0.016295463,0.0037882328,0.09426081,0.0022512078
0.84723794,3.990531e-05,0.020976543,7.2181225e-05,6.28531e-05,0.007635981,0.006506324,0.0024284422,0.00014209747,0.019945055
0.0,5.4836273e-06,0.048645467,1.6093254e-06,8.6814165e-05,1.0,0.000510931,2.0742416e-05,0.00084248185,3.3289194e-05
0.5218941,3.5226345e-05,0.0030690432,0.00033298135,1.1920929e-06,0.0020211935,0.004737854,0.014149666,6.240606e-05,0.42628285
0.8236544,0.00013878942,0.002277702,0.00091555715,3.516674e-05,0.02106902,0.024791896,0.03281361,0.003574431,0.05969864
0.010035008,0.030448675,0.64453816,0.0042691827,0.009350508,0.01450789,0.08137223,0.00591895,0.046076506,0.17211351
9.357929e-06,0.00056380033,0.9130766,0.09723547,0.00043788552,0.0021860003,0.008742571,0.05107811,0.00061655045,0.0013955832
3.2782555e-07,0.70023674,0.00030514598,0.99740195,0.045125425,0.016022176,0.301702,5.9604645e-08,0.10200396,0.0004864633
5.9604645e-08,0.010145873,0.0010203719,0.9998436,0.2566964,0.0014538467,0.0052119195,0.0,0.05496472,0.00014978647
1.1622906e-06,0.62398857,0.18295515,0.00093871355,3.3974648e-05,0.007914543,0.111243606,1.9043684e-05,0.02182722,8.6158514e-05
1.5676022e-05,0.0026864707,0.68698937,0.9966372,0.0019960701,0.0031204224,0.003813833,1.013279e-06,0.00032392144,0.00055089593
0.9793048,3.9339066e-06,0.0016849041,3.9368868e-05,1.9669533e-06,0.0041528344,0.004576564,0.001855582,0.0009825528,0.015782148
0.005031675,5.0842762e-05,0.0060923696,0.00076699257,0.96196485,0.004886687,0.0044059157,2.7686357e-05,0.077890396,0.0005494952
2.9206276e-06,0.9910704,0.0017630458,0.00046035647,0.0006439388,0.01244998,0.044186175,1.4901161e-07,0.9919416,0.0009236932
0.01139468,0.0032037497,0.0010196269,0.0007535517,3.784895e-05,0.009017378,0.04484397,5.0634146e-05,0.9871984,0.021618545
0.86072886,3.1501055e-05,0.00044718385,0.00029480457,1.0550022e-05,0.0057249367,0.004360169,0.003349632,2.7447939e-05,0.00242424
0.9141512,8.481741e-05,0.002293229,4.7534704e-05,8.776784e-05,0.014684826,0.0211882,0.00038388371,0.006197691,0.033216417
3.6537647e-05,0.0180493,0.0131186545,0.98187125,0.01274845,0.007332951,0.05764544,6.0796738e-06,0.9632357,0.0008944273
0.52413106,0.00021159649,0.002805233,0.00065916777,3.066659e-05,0.010408312,0.020093441,0.0010490417,0.5121842,0.035304427
0.0016952455,0.0014242828,0.97297275,0.024539798,0.010967046,0.0055495203,0.0031613708,0.00046554208,0.0032446384,0.002306223
0.00043159723,0.041136533,0.9434968,0.020120949,0.0032050014,0.01006943,0.018122196,0.0008073449,0.18474174,0.022979885
0.92953753,7.253885e-05,0.0046432912,0.00019538403,1.859665e-05,0.015269518,0.010523409,0.00061291456,0.048989266,0.021202505
0.003390193,0.0010561049,0.011222005,0.00041726232,9.447336e-05,0.004630029,0.033462137,0.00035345554,0.99276346,0.0015387833
0.019585937,0.010317266,0.58426416,0.002442032,0.0016672909,0.021488607,0.085219204,0.0011625588,0.01542747,0.005414456
2.6226044e-06,0.99905884,0.0020636916,0.0024157465,0.003940612,0.0028418303,0.0035846233,2.0861626e-07,0.46012336,0.0016162992
0.9678948,6.517768e-05,0.0024280846,0.00013253093,1.642108e-05,0.019666106,0.024156898,0.00076913834,0.003991097,0.01382193
0.87370825,0.00012665987,0.0072814226,0.00067287683,1.5497208e-06,0.009115547,0.011770278,0.0027136803,0.005989045,0.07903868
0.023493141,0.0014406145,0.660241,0.0009481311,0.0012728572,0.011496156,0.022882849,0.0017130673,0.7193779,0.0067270696
4.211068e-05,0.004253447,0.0024075806,0.9997712,0.00036680698,0.004653275,0.01509133,8.940697e-08,0.6523493,0.00011444092
0.75413096,3.5256147e-05,0.0012104511,7.224083e-05,8.225441e-06,0.010941625,0.009726495,0.00042551756,0.4870405,0.004977107
0.3019017,7.113814e-05,0.002026558,4.5716763e-05,7.4505806e-07,0.010484666,0.009946376,0.0009441674,0.7848151,0.009506851
1.1026859e-06,0.99902564,0.0017590523,0.022174507,0.0004028976,0.0045548975,0.008672476,2.682209e-07,0.719419,0.004199326
8.651614e-05,5.6266785e-05,0.0007363856,0.99990636,0.00050640106,0.0033769906,0.013335347,3.2782555e-07,0.00014311075,0.00035715103
0.9588896,2.592802e-06,0.0018196702,2.1606684e-05,3.33786e-06,0.0031577647,0.0034204423,0.010485083,5.6564808e-05,0.015305072
0.94441384,2.4586916e-05,0.0011969805,0.00013935566,5.751848e-06,0.028931767,0.005838275,0.0012257397,0.0010234118,0.009755343
0.6970929,0.00012505054,0.0008972287,0.00024837255,1.4901161e-06,0.007250339,0.0033648014,4.7802925e-05,4.4703484e-05,0.010243833
0.006805271,0.0037691891,0.003150344,0.0009391308,2.95043e-06,0.0062049627,0.090979815,0.00023037195,0.033675134,0.7451718
9.36985e-05,0.97290766,0.004798174,0.0034564435,0.0007857084,0.0045386255,0.038711846,5.662441e-07,0.99238205,0.0010147691
2.8848648e-05,0.05801794,0.01029855,0.000119656324,0.00021803379,0.998119,0.41919607,2.2381544e-05,0.6601941,0.00046226382
0.9772712,3.1292439e-06,0.001121968,7.927418e-06,4.0233135e-06,0.007839084,0.004642248,0.00059080124,0.008648485,0.005980462
0.0004977882,0.1580241,0.47030103,0.0073952377,0.023649782,0.050222874,0.2919717,0.0013819933,0.015442282,0.19107375
0.19724628,0.0006017089,0.007674217,0.0008043945,1.8656254e-05,0.0065246522,0.03902006,0.011692286,0.003190279,0.41630217
7.364154e-05,0.0009953678,0.03615585,0.0009085238,0.8826109,0.002230227,0.03964284,2.05338e-05,0.977507,0.0003260672
0.00013291836,0.019628406,0.007754773,0.0024734437,0.00050380826,0.9998013,0.04350722,0.0017142892,0.03689757,0.002642244
0.83105415,0.00043040514,0.014558226,0.00085934997,0.0002271533,0.014367402,0.009404242,0.00039052963,0.07193607,0.025938898
0.36568317,0.0003529191,0.0046744943,0.00037044287,2.0444393e-05,0.005646229,0.013464928,0.0010540187,0.000251621,0.41228488
8.34465e-07,0.99953234,0.0011903346,0.0034156442,0.0006991029,0.0023078322,0.000620842,1.5497208e-06,0.17945805,0.01037243
0.9237238,1.9580126e-05,0.0014902651,0.00010442734,2.9534101e-05,0.014545262,0.029562175,0.002263844,0.0002785623,0.010808736
0.047843546,9.0032816e-05,0.0026618838,0.00044307113,0.00053939223,0.0050478578,0.008665085,0.00013312697,0.9634863,0.0014766455
0.001054138,0.026966006,0.0051885843,0.003265977,0.0004313588,0.023938894,0.76277244,0.00010970235,0.044648647,0.26150784
0.9804474,5.364418e-06,0.0013284683,8.85129e-06,4.082918e-06,0.009155095,0.006976813,0.001448214,0.0006303787,0.0034154058
0.030659944,0.002492696,0.0070367754,0.002204746,9.5039606e-05,0.98631275,0.08506009,0.0008917749,0.06368247,0.009439915
0.020751685,0.0021431446,0.7764423,0.003073901,0.0005490482,0.0035265982,0.0024873912,0.003140688,0.001092732,0.0066173077
0.00050264597,0.00011655688,0.00045582652,0.9999354,0.000706017,0.01942867,0.02041921,1.4901161e-07,0.0071945786,3.090501e-05
0.014693379,0.0036963224,0.045704186,0.003347844,8.285046e-06,0.0027480721,0.011812329,0.0030665994,0.026842415,0.8363316
0.42818767,5.7518482e-05,0.0021756291,4.2945147e-05,7.778406e-06,0.008012056,0.00819391,0.0011354089,0.74476963,0.0035063028
0.31695658,0.0005861819,0.0024315417,0.0006391108,2.9176474e-05,0.008525908,0.3313431,0.0007376969,0.0003887415,0.09017363
0.006859511,0.0002770424,0.0013109744,3.9219856e-05,2.1457672e-06,0.0046310127,0.017783135,0.00013804436,0.995306,0.0006199181
0.0019924939,0.86861104,0.017923504,0.012064457,0.0011727214,0.025219113,0.0657776,4.0620565e-05,0.024099171,0.098226935
0.9615147,1.3887882e-05,0.0014819205,0.00034195185,6.377697e-06,0.010446936,0.011383027,0.0014843047,0.0031036735,0.020846844
0.0069256425,0.23906502,0.021179736,0.005664557,6.4343214e-05,0.010969043,0.0373255,0.00020378828,0.74314547,0.26298577
0.9252571,8.183718e-05,0.002703309,0.00012218952,7.033348e-06,0.02214539,0.031488925,0.004551649,0.0061481893,0.028562963
0.14146623,0.000464499,0.4743118,0.0011331737,0.0004850626,0.0031899512,0.0044036806,0.0015243888,0.00059857965,0.010030717
0.6370292,0.0001603961,0.0069934726,0.0002886355,0.003833294,0.015423268,0.026317,0.0011740625,0.0010004938,0.105752856
0.95629555,5.3942204e-06,0.0018965006,3.424287e-05,1.4275312e-05,0.0054867268,0.01005742,0.010137737,0.000103235245,0.022733271
0.00226143,0.0048442185,0.0025772154,0.0043129027,0.00038725138,0.03937438,0.93280804,0.0056667626,0.00048586726,0.09233251
0.1500099,0.00027742982,0.7920314,0.0009995103,0.0011321008,0.0056372285,0.0024807751,0.0040659606,0.003186822,0.0045405924
0.60109293,1.1026859e-06,0.0018794537,4.8965216e-05,4.7683716e-07,0.001308918,0.004163772,0.5712917,9.208918e-06,0.010513723
2.887845e-05,0.0010827184,0.0023949146,7.921457e-05,3.1024218e-05,0.96754277,0.08271754,5.5104494e-05,0.99404633,4.3958426e-05
1.1920929e-07,2.1457672e-06,0.00024440885,0.9999985,0.024565935,0.00029069185,0.0025013685,0.0,5.364418e-07,9.298325e-06
0.048314035,0.0029459894,0.002716124,0.00042292476,8.0794096e-05,0.01068449,0.060030848,0.00029248,0.9311439,0.04577899
0.95867896,8.696318e-05,0.0021547973,0.00013557076,7.6293945e-06,0.019192934,0.023218632,0.00097078085,0.0026896298,0.037476093
0.0029470325,0.0037013292,0.8381305,0.00655514,0.5056659,0.005797535,0.0080164075,0.0007222891,0.014219403,0.027598202
8.940697e-08,0.020866424,0.59889543,0.9976381,0.03986004,0.0073581934,0.6548699,2.413988e-06,0.00013411045,6.210804e-05
0.938779,0.00030189753,0.0024146438,0.00047582388,2.926588e-05,0.026652664,0.02772379,0.0015670061,0.00586012,0.045924693
0.00055235624,0.00079217553,0.025174767,0.0013682842,0.00010856986,0.0026292205,0.006771624,0.0012583435,0.99711096,0.0010318756
1.5884638e-05,0.004529774,0.0009332895,9.149313e-06,4.4107437e-06,0.059356242,0.99861705,4.8726797e-05,0.0025756955,0.0030387342
0.007268101,0.019917518,0.7874915,0.017784834,0.027438343,0.009246856,0.04669234,0.00090417266,0.0820404,0.07786271
0.029215723,0.00020626187,0.0028348565,0.00010243058,3.787875e-05,0.010207474,0.010071307,0.00024589896,0.9864148,0.00031474233
9.647012e-05,0.7451734,0.05343148,0.0014796853,0.0115740895,0.32399583,0.24051005,1.9073486e-05,0.13782126,0.028304517
1.2904406e-05,0.011344314,0.00053983927,0.9755505,0.047564358,0.0064816177,0.05065295,7.4505806e-07,0.040492415,0.06018254
1.1920929e-07,0.99792725,0.00022596121,0.9368429,0.001781702,0.005562961,0.01005128,0.0,0.13998353,3.0100346e-05
0.78151745,0.00012499094,0.0015656948,0.0002963841,3.6358833e-06,0.021890163,0.015539765,0.018832296,0.16740915,0.058490396
0.0017802417,0.013111889,0.01814267,0.00079897046,0.00015828013,0.9937368,0.13173655,0.0008302927,0.059011847,0.0042541325
0.95093715,7.966161e-05,0.0053984225,0.00015255809,4.1007996e-05,0.012363732,0.010081351,0.0025131106,0.005544424,0.057687193
1.4901161e-07,0.034292758,0.9748175,0.07010034,0.026247531,0.9984883,0.017316937,0.00089260936,0.016452223,8.127093e-05
0.31103534,7.253885e-05,0.0007354915,9.1552734e-05,8.34465e-07,0.014588475,0.0134032965,0.001440376,0.86077905,0.006142229
5.3346157e-06,0.0012558401,0.016748667,0.9975796,0.36194783,0.004042536,0.04688582,8.1419945e-05,0.00047031045,0.0017570257
0.0070642233,0.00024041533,0.0013761222,9.0539455e-05,1.937151e-05,0.0025418997,0.016414315,0.00014600158,0.9957944,0.0006047785
0.66697705,0.00072294474,0.004956335,0.0007365346,0.00078096986,0.013872057,0.025068104,0.0012602508,0.007876992,0.13459063
0.0011646748,4.8279762e-05,0.00083586574,0.9994924,0.0010797381,0.0071736276,0.012706935,2.5331974e-06,0.0023526251,0.0003606379
0.94806254,2.2441149e-05,0.0010347664,0.00013068318,3.862381e-05,0.01687041,0.016420335,0.0004645884,0.01813221,0.007948995
0.0,3.5762787e-07,1.2695789e-05,5.9604645e-08,0.0,5.3972006e-05,1.1444092e-05,3.5762787e-07,5.841255e-06,0.9999999
0.0,0.0001256764,4.1097403e-05,0.99998957,8.7320805e-06,0.00085920095,0.9991981,2.9802322e-08,6.4074993e-06,3.5762787e-07
0.0,0.0010649264,0.0176,0.000213027,0.092644155,0.9999996,0.03690937,0.00047650933,0.0012593865,1.6868114e-05
0.9252572,1.3709068e-05,0.0053341985,9.560585e-05,4.374981e-05,0.011797965,0.0060403943,0.0012893975,0.00011244416,0.045191765
0.0,0.0,6.2584877e-07,2.0861626e-07,0.0,1.0,0.0,0.0,0.0018914044,0.0024866164
0.05407417,0.0024026036,0.0069452226,0.0020534098,0.0004287958,0.012023956,0.04343912,0.00058972836,0.96545494,0.014635712
0.016504139,0.0012425482,0.0012277365,0.000448972,2.7805567e-05,0.0063587427,0.03556907,0.00012886524,0.98694235,0.013306141
0.22927505,0.00012874603,0.0025821924,0.0002619624,2.4855137e-05,0.0058670044,0.0059947968,0.00049623847,0.76815975,0.008293211
0.0006302595,0.05740121,0.0048642457,8.940697e-08,0.00029492378,0.12888059,0.963717,2.2023916e-05,0.0017115176,0.0011013448
0.06135887,0.00043827295,0.00433591,0.0011001825,1.8417835e-05,0.025554001,0.18316785,0.17997968,0.0050100684,0.17362678
0.18299681,0.013610035,0.21087074,0.0017526746,8.8870525e-05,0.007233739,0.0018405318,0.00027507544,0.0075772107,0.009698749
0.016912192,0.000705719,0.0007428527,0.000109404325,1.6152859e-05,0.006589353,0.036545306,0.00015300512,0.99225307,0.004654467
6.854534e-07,0.9947383,0.0031427145,0.00072678924,0.0002964139,0.0015254021,0.014180005,3.707409e-05,0.004799396,0.0063906014
0.000121861696,0.05299756,0.025738657,0.9696742,0.07642248,0.004840255,0.024174005,9.834766e-07,0.3855951,0.021426141
0.04759109,0.016861737,0.056759745,0.0053130686,0.00071939826,0.0070923567,0.011166185,0.000100165606,0.0671559,0.55326116
0.2165027,1.1146069e-05,0.0046568215,0.00027000904,6.2286854e-06,0.0036726296,0.0054193735,0.6375061,1.8626451e-05,0.05848661
2.026558e-06,0.00020599365,0.0008042753,0.99996287,0.056998104,0.011443377,0.026502639,2.9802322e-08,0.56019974,3.5762787e-06
0.7378082,0.00022873282,0.0042070746,0.00042274594,9.536743e-06,0.015023947,0.018427432,0.0045512915,0.23958275,0.04160449
0.9565136,6.720424e-05,0.0023338199,0.0005121231,4.041195e-05,0.01778403,0.016485274,0.00043052435,0.0035679936,0.009642988
0.9732965,2.8908253e-06,0.0025532544,0.00018802285,1.4007092e-06,0.0067672133,0.0059277713,0.0036852658,0.0015633702,0.0052687526
0.8104056,0.0009316802,0.0116478205,0.00011062622,7.247925e-05,0.023442656,0.014004767,0.00060498714,0.098009706,0.013854474
1.7881393e-07,0.007904679,0.43020055,0.00067445636,0.71040225,0.07209027,0.015473157,2.682209e-07,0.9893508,8.046627e-07
0.00064349174,0.00046145916,0.008148313,0.00043660402,1.719594e-05,0.99995947,0.014538616,0.010322481,0.01256147,0.0012494624
0.9304067,0.00021708012,0.0032979548,0.0005915463,3.6984682e-05,0.012181133,0.01508069,0.0007978678,0.008097559,0.08178401
0.866857,0.0001629889,0.003148824,0.00043195486,3.454089e-05,0.0099615455,0.018740922,0.0011392236,0.0023333132,0.24592346
0.964754,4.3213367e-06,0.0025684237,2.1576881e-05,3.516674e-06,0.004635662,0.0057144165,0.0032978654,0.00022014976,0.014820784
0.006744772,0.0015019774,0.0013256669,0.0020479262,3.245473e-05,0.0008889735,0.03833589,1.3142824e-05,0.12800139,0.85803545
0.00032636523,0.08032119,0.34269714,0.0008262992,0.0033406615,0.0066468418,0.03048122,0.00022730231,0.98295426,0.00081297755
0.014327884,0.004989296,0.89410114,0.008152306,0.0030753613,0.0065256953,0.0044721067,0.00053557754,0.0025762022,0.0111784935
0.0074022114,0.085846126,0.002003938,0.0002836287,0.00033473969,0.081731796,0.56601566,0.00024598837,0.69856834,0.012833357
0.0014348328,0.00037804246,0.00304389,0.004001826,0.7450152,0.4879076,0.10694212,4.2051077e-05,0.0057855546,0.00033199787
0.33526063,0.0010103881,0.007097155,0.009616464,4.979968e-05,0.013844103,0.0118537545,0.0076924264,0.011004716,0.221809
0.00332883,0.00014287233,0.0010666251,0.99937856,0.00050097704,0.0101104975,0.015629768,9.834766e-07,0.00054356456,0.0005043149
8.8095665e-05,0.055045277,0.205091,0.0082909465,0.16608664,0.008174658,0.08966911,0.00030374527,0.9829074,0.007739216
0.94987035,8.0138445e-05,0.0030289292,0.00010958314,9.715557e-06,0.016598701,0.016304642,0.000561744,0.003416717,0.029206067
0.32959133,5.5998564e-05,0.007173121,0.00051799417,6.020069e-06,0.0058939755,0.0072984993,0.13828391,0.13284326,0.10388151
0.93696046,0.0001000762,0.0053747892,9.512901e-05,1.2129545e-05,0.015485197,0.016340226,0.00037780404,0.014576584,0.028570145
0.0042880177,0.0039696693,0.0036842823,0.00033789873,0.00021585822,0.004538268,0.027114242,3.4421682e-05,0.9951499,0.0015393198
3.683567e-05,0.9631813,0.0019498765,0.015514791,0.0031722486,0.0039379597,0.03378716,7.4505806e-07,0.9965522,0.0003027022
0.95207894,1.6182661e-05,0.0052907765,2.0384789e-05,7.0035458e-06,0.0057632625,0.004087746,0.00040656328,0.0002104342,0.026686281
0.40299693,0.00094261765,0.6551033,0.0029911697,0.0037667453,0.019826144,0.010785192,0.0067605674,0.041278154,0.0083274245
2.4437904e-06,0.016606152,0.0028998256,0.998544,0.11175695,0.007093787,0.045827895,0.0,0.31731683,0.0008018911
0.90453184,1.5854836e-05,0.0028812885,0.0002927184,5.6624413e-06,0.0072493255,0.007410735,0.08443421,0.00043550134,0.021082044
0.0002951622,0.004032254,0.97359836,0.00806433,0.0049082935,0.0042821467,0.012176961,0.0010369718,0.07544583,0.019530594
0.000890404,0.05371824,0.024542063,0.0043613017,0.00012478232,0.01496163,0.87518406,0.00015899539,0.17853189,0.069220126
0.00029540062,0.024992943,0.01289314,0.00059485435,3.2395124e-05,0.0026842058,0.0152083635,3.5971403e-05,0.16996261,0.95441
0.94720376,6.5892935e-05,0.002638489,0.00016844273,1.2040138e-05,0.010922521,0.01818505,0.0012977719,0.005679041,0.06665382
0.32193428,0.0013810396,0.013041884,0.00079891086,5.1677227e-05,0.29014522,0.077828646,0.006594658,0.008007139,0.052978456
1.5199184e-06,0.9921092,4.476309e-05,0.9892019,9.1820955e-05,0.0064273477,0.0032521784,0.0,0.7104182,1.49309635e-05
5.6028366e-06,0.3425445,0.05164355,0.0008344054,0.001675427,0.9996948,0.0326775,4.0888786e-05,0.23884436,0.0020145178
5.6266785e-05,0.00011649728,0.78956187,0.0012405515,0.0006405413,0.002487868,0.018279403,0.8719406,0.0032532513,0.0020685494
0.0011049807,0.00097483397,0.0068493187,0.00025594234,5.8710575e-06,0.009372741,0.060854167,0.0030193925,0.90260166,0.07508889
0.00017341971,0.9187127,0.02261421,0.008467674,0.0013694167,0.02140969,0.07570368,6.645918e-05,0.026065826,0.0936183
6.2286854e-06,0.014220148,0.80330265,0.993718,0.026745379,0.006323278,0.033686817,6.645918e-06,0.8682401,0.00014179945
0.0036917925,0.0020815432,0.0045274794,0.0005108416,2.0861626e-05,0.0063842833,0.08820051,0.006172627,0.9493629,0.043530375
2.2053719e-06,0.04189363,0.14949927,0.9955768,0.6515629,0.09983772,0.06235853,2.4586916e-05,0.0062928796,0.0016433597
0.7667601,1.0311604e-05,0.016104192,6.467104e-06,3.4362078e-05,0.0029470325,0.0015852451,0.000238657,0.0011748672,0.004823774
0.9412287,3.2275915e-05,0.0035501122,9.9778175e-05,4.0769577e-05,0.0148983,0.019644946,0.00091427565,0.0013462603,0.018059343
7.635355e-05,0.022354454,0.24774817,0.00093862414,0.0008074641,0.9939375,0.050346404,0.0030512214,0.007494658,0.013367325
0.07654083,2.2649765e-06,0.0036691427,1.3738871e-05,3.1888485e-06,0.002604127,0.0039737225,0.9733846,4.798174e-06,0.002284944
0.0,3.3676624e-06,0.15814024,4.6521425e-05,4.684925e-05,1.0,0.00014457107,2.670288e-05,0.16352841,0.0001719892
0.14101034,0.00057950616,0.003417641,0.0009922385,3.451109e-05,0.8985215,0.036365747,0.0004554689,0.01840967,0.0066779256
3.2782555e-07,0.0086705685,0.16666025,0.000651747,0.0037561655,0.9999994,0.003651917,0.00014173985,0.18365556,0.00079241395
0.0018857121,0.0046194196,0.005122006,0.00063699484,5.453825e-06,0.0047679245,0.06825346,0.001218766,0.40945792,0.5435179
4.1127205e-05,0.00020885468,0.9935219,0.004592508,0.0067391098,0.0025830567,0.028277546,0.020788372,0.0013828576,0.0015234351
1.2457371e-05,1.1563301e-05,0.00083759427,0.99995315,0.0006414652,0.0010252595,0.003470838,5.9604645e-07,2.6226044e-06,6.0528517e-05
0.27701864,0.008475363,0.014849216,0.0060664713,0.0022574961,0.031092197,0.046367764,0.00026586652,0.07732776,0.17474988
0.9858116,1.2516975e-06,0.00056776404,6.4074993e-06,7.95722e-06,0.006564766,0.005813122,0.0015169084,0.00029429793,0.005928725
0.0013890862,0.008912772,0.008081585,0.0029449463,0.00075903535,0.99669504,0.027040541,0.00042134523,0.0727973,0.0021255314
0.016188174,0.0014315844,0.0020167828,0.001106292,8.404255e-06,0.023266017,0.8892063,0.003970146,0.11575043,0.044084847
6.854534e-07,0.011824787,0.8368869,0.0011998415,0.3450166,0.029179484,0.008527935,5.364418e-06,0.0004995167,0.041728586
0.74098885,0.00032311678,0.0024355054,8.511543e-05,1.40070915e-05,0.27245092,0.070699304,0.0036269426,0.0052785873,0.014322579
0.8401457,0.00038260221,0.001773715,0.001611203,8.589029e-05,0.011682957,0.040010095,0.002506286,0.009102911,0.1294918
0.3248446,0.0020959973,0.0038471818,0.0019642115,1.3023615e-05,0.008609623,0.010502428,0.0013448894,0.0087714195,0.42800957
0.0018816888,0.0017756224,0.0053545535,0.00044736266,5.2571297e-05,0.20868117,0.13383704,0.0027285218,0.5744306,0.06298068
0.6315744,0.0011410415,0.0063822567,0.0007991195,0.00018376112,0.01418677,0.025161892,0.00027611852,0.0054864585,0.26140624
0.00948,0.075626165,0.0019408166,0.013481945,0.0005930662,0.17429188,0.020017296,0.00012901425,0.7698306,0.0075529814
0.8584043,1.7642975e-05,0.0007327795,0.00025942922,5.453825e-06,0.0055722,0.008903593,0.017555624,3.3080578e-06,0.007045865
0.069737226,0.0010945797,0.0013075173,0.014980882,1.7225742e-05,0.00463143,0.0164724,0.00038647652,0.91755265,0.030468881
0.00013130903,0.024084866,0.8257841,0.012010425,0.0021666884,0.9706028,0.034273446,0.00029474497,0.0062933564,0.00039947033
0.8493615,0.0006799996,0.01039809,0.0009864271,9.307265e-05,0.026732385,0.018791258,0.0008087158,0.04936236,0.042610735
1.3113022e-06,0.036428124,0.0008703172,0.99659026,0.007890791,0.04239452,0.94191587,6.2584877e-06,0.001737535,0.0010904968
0.951434,4.6640635e-05,0.0012077689,0.0005610585,1.4215708e-05,0.015418649,0.013303429,0.0029384792,0.0036093593,0.032288074
0.0005302727,0.001273334,0.001360029,0.99921274,0.0017994046,0.0058306754,0.014251798,5.662441e-07,0.0012337565,0.0017081201
0.9270097,0.00010856986,0.003186047,0.00037315488,6.0796738e-06,0.013186485,0.010252029,0.0014226139,0.04416555,0.018425524
0.002568692,0.004963517,0.0066728294,0.0009770095,6.0617924e-05,0.010419637,0.09158796,0.0009987354,0.90981907,0.11414856
2.3841858e-07,0.041459203,0.015138388,0.0007236004,6.0230494e-05,0.9999956,0.00478068,0.00062796474,0.007359743,0.0036109984
3.6656857e-05,0.0033873022,0.0025066733,0.99572647,0.00014010072,0.0113886,0.17401916,3.412366e-05,0.0009926558,0.0023636222
0.96765256,8.106232e-06,0.0024638772,0.00021460652,1.8030405e-05,0.0089101195,0.0076836944,0.0009216368,0.0018219054,0.019741595
0.0025633276,1.9729137e-05,0.0005065501,1.9967556e-06,1.4007092e-06,0.0014692247,0.008696258,7.8588724e-05,0.9984551,7.966161e-05
0.10073137,0.00055089593,0.76088196,0.0035468638,0.0035229623,0.013916701,0.014020801,0.024718165,0.0022065043,0.020096838
0.001156956,0.9861976,0.0045808256,0.012585372,0.00058066845,0.009014577,0.008848041,8.940697e-07,0.0057868063,0.0112781525
0.96754694,2.3543835e-05,0.0024808645,4.7445297e-05,9.208918e-06,0.011882246,0.013461381,0.0023744404,0.0035561323,0.022861958
0.009935349,0.00037825108,0.006204605,8.9496374e-05,2.7269125e-05,0.0029590428,0.024594188,0.0005903244,0.9913837,0.0018426776
0.8895764,4.3153763e-05,0.0034278035,6.574392e-05,0.0001296699,0.022541672,0.01730451,0.0010785162,0.023171097,0.0077078044
5.364418e-07,0.45248556,0.6140336,0.87781477,0.034539104,0.013146579,0.3714295,5.6028366e-06,0.88407534,0.00018307567
0.14956746,0.00034976006,0.0056611598,0.00024610758,6.312132e-05,0.008918673,0.011418551,0.00092861056,0.92915034,0.0044504404
0.9111574,7.1793795e-05,0.0018492639,0.00019943714,3.6269426e-05,0.012517184,0.025044829,0.0019244254,0.0044018924,0.07993397
0.9408634,1.1384487e-05,0.00066670775,0.00013631582,2.7120113e-06,0.0063323975,0.0067617893,0.0321835,7.933378e-05,0.0088559985
0.087251365,5.8323145e-05,0.00021362305,1.7940998e-05,3.4570694e-06,0.026126504,0.963555,0.0009113848,0.0008621216,0.003253132
0.79538715,0.00023978949,0.004369378,0.00028964877,1.3947487e-05,0.008917421,0.014564484,0.00086560845,0.09177777,0.0605821
0.5018701,0.00028458238,0.0064349473,0.00023970008,1.8566847e-05,0.010926008,0.014509201,0.0004094839,0.5536829,0.025406748
0.0026727319,2.4527311e-05,0.00018548965,1.758337e-06,6.2584877e-07,0.0012141168,0.009098053,4.6163797e-05,0.9974818,0.0002616346
0.07748577,0.0025868416,0.005279988,0.0035489798,3.4332275e-05,0.012354046,0.033398062,0.0021547377,0.0008286536,0.6149404
8.6694956e-05,0.03944075,0.26383698,0.0030058026,0.0008147657,0.0038765073,0.06781691,0.00035080314,0.99599874,0.00070488453
0.0,0.0001628995,0.00071409345,0.9992917,0.99947965,0.0010173023,0.0050531924,0.0,0.0013774335,1.1920929e-05
0.70185965,7.534027e-05,0.003988266,6.5386295e-05,0.00026115775,0.022314996,0.014197379,0.00044322014,0.020158172,0.04070458
0.68822825,0.0035530627,0.04787481,0.0018171966,0.00019559264,0.021919817,0.016609699,0.000959605,0.10574886,0.008955598
0.5430607,0.00018003583,0.002633214,0.00032657385,2.026558e-05,0.012808412,0.028811514,0.004977435,0.2545926,0.028375149
4.7415495e-05,0.00024658442,0.00024744868,8.46386e-06,4.142523e-06,0.016864628,0.9999082,7.984042e-05,0.0016053021,0.0010647774
0.0020136237,0.00048038363,0.007439345,0.001190722,1.2874603e-05,0.0089555085,0.040766835,0.59396505,0.0043136775,0.08898693
1.3709068e-06,0.0010218918,0.0035429895,0.998824,0.00052291155,0.008406699,0.05439958,4.976988e-05,0.0005530715,0.00070521235
0.00023964047,0.011834234,0.0023316443,0.0043275654,4.541874e-05,0.7486986,0.94996166,0.0003643036,0.07327101,0.006018549
3.7789345e-05,0.057961076,0.11362368,0.0019131899,0.3136338,0.088077486,0.5985236,6.2286854e-05,0.8411003,0.0027406216
0.0026106536,0.0012019575,0.967718,0.009067237,0.01016894,0.004637867,0.015159249,0.0013866425,0.226596,0.0040210485
0.0033475459,0.00022512674,0.0018350482,5.9336424e-05,4.3213367e-06,0.0020350814,0.014378428,0.00026765466,0.99783826,0.0011166036
0.96927047,1.12354755e-05,0.0018531978,8.660555e-05,3.5464764e-06,0.009333789,0.010810107,0.0051361024,0.0038651526,0.013813734
0.93080837,5.108118e-05,0.0040897727,0.00014990568,2.3007393e-05,0.011715144,0.012557209,0.0009799302,0.0027453303,0.1042698
0.0025092661,4.079938e-05,0.0002309382,0.9988923,0.0005465448,0.0067335665,0.01064226,2.771616e-06,6.207824e-05,0.0006784797
0.00010916591,8.139014e-05,0.0009495914,0.99981964,0.0021435618,0.0023185313,0.007019609,7.4505806e-07,3.0636787e-05,0.0005918443
0.029122323,4.6879053e-05,0.0030350387,2.798438e-05,9.953976e-06,0.00608024,0.010533839,0.00023582578,0.97060764,0.00069370866
0.94405705,8.675456e-05,0.0029432476,0.00061285496,1.013279e-05,0.009111494,0.010461628,0.00045514107,0.0021505952,0.0684751
0.92287266,7.715821e-05,0.006797552,0.00014737248,8.6426735e-06,0.015732259,0.018001884,0.0026366413,0.012623131,0.0200755
0.2820523,0.00038951635,0.0010065436,0.0001834333,1.5854836e-05,0.010790437,0.274166,0.00063180923,0.0017514825,0.06730175
0.0002656877,0.000733912,0.0010745227,0.00011703372,1.0192394e-05,0.0073542893,0.9704745,0.0025886595,0.0010935664,0.021060526
0.41637236,0.0038007498,0.015769541,0.0015760064,0.0001757443,0.04605362,0.01984641,0.00037577748,0.18442237,0.09359786
0.0870561,0.0015923977,0.006226957,0.0012721717,1.2516975e-05,0.019419283,0.5699578,0.00016903877,0.026432276,0.022234112
0.004046172,0.006293595,0.009361029,0.0014639199,5.4478645e-05,0.0150767565,0.09995997,0.000857383,0.7127672,0.21822175
0.70070505,5.915761e-05,0.0019373298,0.00036251545,5.5134296e-06,0.011461318,0.012369782,0.0074445903,0.48748904,0.018390596
0.00819689,0.00095149875,0.0016876161,0.0012164116,4.211068e-05,0.0028164983,0.036550015,0.00017261505,0.9935886,0.007895976
1.1742115e-05,0.9731369,0.0054849684,0.0016748905,0.0011362731,0.008836597,0.065626055,1.4603138e-06,0.98941267,0.0013661981
0.007847369,0.0019250512,0.0012477934,5.465746e-05,7.212162e-06,0.005297661,0.03113532,3.913045e-05,0.9884975,0.0071688294
0.0010223389,0.0014976263,0.98560464,0.0037522614,0.0024120212,0.0055025816,0.0076751113,0.00096675754,0.30645034,0.00093361735
2.4080276e-05,0.9991666,0.0010765195,0.05542913,0.000782907,0.004137635,0.0014803112,8.940697e-08,0.06651822,0.00022098422
0.20876491,0.00018548965,0.002780676,0.00011393428,6.6161156e-06,0.0072702765,0.015818,0.00034940243,0.89805883,0.0076733828
7.778406e-06,0.9965078,0.0005463362,0.0006786287,0.0001244247,0.004320681,0.015858531,1.4901161e-07,0.98520404,0.001786381
0.00072291493,0.95409524,0.010894775,0.018204898,0.001565367,0.023007393,0.0669207,2.0563602e-05,0.64040834,0.01852268
0.01419723,0.28703684,0.03742224,0.021778673,0.0035322607,0.015242398,0.041245013,0.00018036366,0.005742401,0.16937521
0.0,0.00015351176,0.068778366,0.0032204986,0.00012496114,1.0,0.0007248819,4.1872263e-05,0.28605425,3.5643578e-05
1.1324883e-06,0.7125431,0.012566835,0.0051816404,0.0019724667,0.0179739,0.7265502,8.046627e-06,0.0002117157,0.001826942
2.5391579e-05,0.021514237,0.97144204,0.030897647,0.10205749,0.0076153874,0.028586894,0.0009457469,0.89354956,0.00091430545
0.49259245,0.00037309527,0.0032987595,0.00071808696,1.6391277e-05,0.0041868985,0.0059679747,0.0027905107,0.00044611096,0.35895008
1.6391277e-06,0.0633612,0.020783722,0.8039049,0.2419663,0.98839283,0.07106283,2.6971102e-05,0.08162904,0.0020347834
0.617887,0.0011593401,0.010746092,0.0012282133,0.007245511,0.019765109,0.042962164,0.0002475679,0.028459996,0.0495176
1.1026859e-06,0.023731768,0.0010285378,0.99993634,0.0018059015,0.028648376,0.10436943,0.0,0.048893005,1.5497208e-05
0.077691615,1.9937754e-05,0.0077017546,0.00033664703,5.3852797e-05,0.005050212,0.0058945417,0.8905536,4.0113926e-05,0.010469168
0.8039906,4.300475e-05,0.0021915138,6.338954e-05,3.9041042e-06,0.008234739,0.005596727,0.04082808,0.0013910532,0.00834915
0.4549037,0.00012663007,0.017262012,0.0009070933,2.5004148e-05,0.01214236,0.0072855353,0.004823029,0.00035315752,0.07679394
0.96700823,8.389354e-05,0.0029236674,0.0002374053,9.089708e-06,0.013613582,0.013432533,0.0008881688,0.004802257,0.03187111
0.006744772,0.0015019774,0.0013256669,0.0020479262,3.245473e-05,0.0008889735,0.03833589,1.3142824e-05,0.12800139,0.85803545
0.26396698,0.00041782856,0.0038661957,0.0023436546,4.9978495e-05,0.011684179,0.09303194,0.06300396,0.016557872,0.01420787
0.0040074885,0.005118519,0.004588783,0.0012292564,0.0008162558,0.0051374137,0.055926442,0.0001013875,0.9955118,0.0022338629
4.634261e-05,0.019415438,0.00979355,0.99144244,0.030010551,0.02589041,0.14425334,5.0783157e-05,0.05271244,0.014334351
0.12857318,0.0029064715,0.0051361322,0.003148973,0.006637156,0.027943999,0.059284836,0.0003424883,0.30331382,0.07879591
5.4836273e-06,0.3918864,0.03835997,0.99300015,0.008220971,0.022945374,0.08824086,1.2665987e-05,0.8037864,0.0010264814
0.0063080788,0.0011658072,0.0022036433,0.0010291636,1.79708e-05,0.00730139,0.026570916,9.676814e-05,0.99430573,0.0017474294
0.95480514,0.000102996826,0.003173411,9.256601e-05,1.129508e-05,0.014999241,0.016760826,0.0005507171,0.012401134,0.03480065
0.27775818,3.2246113e-05,0.007846057,0.00016221404,9.161234e-05,0.027268887,0.22727054,0.0025446117,0.00041726232,0.0026091337
0.8405975,0.00027656555,0.0036259592,0.0010532737,1.552701e-05,0.018377602,0.0243994,0.010022044,0.00077825785,0.192886
0.0,0.008296132,0.0029518306,0.99220556,0.8429172,0.99953294,0.11430341,8.6426735e-07,0.016597718,6.5267086e-06
0.18861121,0.006550163,0.13060623,0.056271136,0.0015884638,0.018614888,0.03158179,0.0035555959,0.0032669306,0.09242734
4.428625e-05,2.2441149e-05,0.00033456087,0.99986356,0.00016513467,0.00085133314,0.007623136,8.940697e-08,5.453825e-06,0.00086960196
0.0043873787,0.0062399507,0.0005507171,0.0002565682,9.23872e-07,0.038448304,0.94457644,0.0021640956,0.00039079785,0.021253258
0.081676275,5.221367e-05,0.0012651682,0.00014007092,3.4570694e-06,0.0030933022,0.0039170086,0.6010245,2.1666288e-05,0.021138966
1.1861324e-05,0.0012997389,0.016780287,0.9998553,0.0034357011,0.0076366067,0.0151003,0.0,0.031178176,9.983778e-06
1.1622906e-06,0.996397,0.003964901,0.0011510253,0.00026363134,0.038101047,0.0606755,6.854534e-07,0.7650373,0.0019155145
0.00012871623,0.0008036196,0.0008828342,0.0022069216,0.00016701221,0.0006672442,0.014778435,0.0005071163,0.01014623,0.98360753
0.0008445978,0.0045832396,0.005425513,0.0008420348,2.2947788e-06,0.0032372475,0.03411767,0.0006182194,0.4228825,0.7721528
0.7976731,0.00012984872,0.004758239,0.00022375584,2.3782253e-05,0.013223946,0.011499345,0.0014835894,0.21026668,0.016915739
0.0013676882,0.0054195225,0.008662134,0.00031414628,0.0001474917,0.99944234,0.04441917,0.00039190054,0.06041974,0.0024299324
5.9604645e-08,0.00017097592,2.2619963e-05,0.99936426,0.9979892,0.0009609759,0.009334803,0.0,0.00017285347,0.00010460615
0.13567328,4.529953e-06,0.0011688471,4.467368e-05,1.2814999e-06,0.005702734,0.008682191,0.9107803,2.7060509e-05,0.0067789555
0.0008196533,0.0008173883,0.0012998581,2.6226044e-05,1.013279e-05,0.0046434104,0.037261248,4.2676926e-05,0.998095,0.0005929172
0.94658417,9.119511e-06,0.004413098,9.7602606e-05,1.937151e-06,0.004644692,0.0066523254,0.019381136,0.00021377206,0.022256613
0.020029664,0.00014707446,0.010278463,0.0074087083,4.6402216e-05,0.0060414076,0.005938977,0.68536276,0.0046657026,0.0155775845
0.00050613284,0.0007266402,0.9877186,0.035885155,0.09787533,0.0033681989,0.010621518,0.00077453256,0.050434828,0.0010143518
0.003189683,3.85046e-05,0.0004478395,5.096197e-06,2.5331974e-06,0.001572758,0.011986196,7.8231096e-05,0.9978925,0.00022530556
0.00019684434,0.2266168,0.001065135,0.00013458729,8.779764e-05,0.072072625,0.60529816,0.0001565516,0.16887516,0.01264438
0.13390368,0.00023254752,0.0023047328,0.00015977025,3.695488e-06,0.00707829,0.023276448,0.0015035272,0.85084355,0.03516507
0.0,0.016967535,0.024764508,3.0577183e-05,0.0010694861,0.999912,0.006234288,1.0341406e-05,0.01976195,0.0014595389
0.92015755,1.8626451e-05,0.0023788512,4.1395426e-05,7.390976e-06,0.01161027,0.009508014,0.043929428,0.010262996,0.012847185
0.7887917,0.0003913045,0.00995338,0.0011408329,2.3037195e-05,0.036159903,0.02984342,0.012277126,0.0034492612,0.02194342
0.029842317,0.00371176,0.005754143,0.0006364584,8.687377e-05,0.006991148,0.01778391,4.082918e-05,0.9665357,0.014113724
0.0049658716,0.004241109,0.0008055866,0.0004594326,1.5199184e-06,0.026769698,0.9933022,0.00013673306,0.0009190142,0.01726833
0.9644213,3.8325787e-05,0.0039824843,5.4240227e-05,5.543232e-06,0.008186787,0.011992067,0.0033717752,0.00046858191,0.052310854
0.00017428398,0.00029429793,0.0014090836,0.9990145,0.0012191534,0.0036485791,0.0067974627,2.115965e-06,0.0007763803,0.00060233474
0.04300642,8.6426735e-07,0.001767695,2.3514032e-05,5.543232e-06,0.003465414,0.0022164285,0.9911183,3.3318996e-05,0.0014232397
0.0047804415,0.0013379455,0.0058705807,0.00033774972,6.169081e-05,0.0049803257,0.022564322,0.00028836727,0.99539316,0.001437664
0.050863594,0.042905927,0.017409295,0.00062796474,0.00014346838,0.026370913,0.019703567,0.00020137429,0.6426938,0.023891926
6.470084e-05,3.0994415e-06,0.0012849867,2.5093555e-05,1.847744e-06,0.0015203059,0.019109458,0.99886286,3.2126904e-05,0.0035817325
0.0118891,0.0065220296,0.0029200613,0.00060772896,9.357929e-06,0.035899192,0.8614265,0.00081148744,0.008740187,0.11804479
0.05506578,0.00043267012,0.002959162,0.00031527877,6.7949295e-06,0.009645522,0.027705729,0.00045907497,0.95241934,0.01061669
0.0067453384,0.0015016794,0.0013249516,0.002047807,3.248453e-05,0.00088885427,0.03833589,1.31726265e-05,0.12801129,0.8580426
0.0005928874,0.33128083,0.011184752,0.06786066,0.011414409,0.023521632,0.04866317,3.7372112e-05,0.8965661,0.14001253
0.018848985,0.00031402707,0.001957953,0.00016966462,5.7816505e-06,0.008133739,0.04374695,0.00073197484,0.97568667,0.0050843954
0.0009633899,0.0003453493,0.0010821521,0.0015797615,1.1056662e-05,0.9964541,0.32997876,0.0019816756,0.002847284,0.0028838217
0.968578,1.257658e-05,0.0009774268,2.1994114e-05,1.5854836e-05,0.023696542,0.012987375,0.00094011426,0.0019024014,0.009608805
0.96472937,2.7298927e-05,0.00242123,0.00027051568,2.6226044e-06,0.016207337,0.013338864,0.0034491718,0.0052056015,0.03575504
0.9272158,0.00011047721,0.0014546216,0.0005931854,1.4007092e-06,0.011709034,0.009140581,0.0030538738,0.00078606606,0.024755985
0.91821116,2.4318695e-05,0.0052974224,0.00019824505,1.5825033e-05,0.009325683,0.008514762,0.0036101043,0.00093236566,0.0236786
0.0017873645,0.0031952262,0.0105623305,0.003047347,0.0016916096,0.0049337745,0.024048626,6.0349703e-05,0.9952942,0.00034946203
0.90975714,0.0006285608,0.003822863,0.0020792782,1.3113022e-05,0.021212459,0.014523745,0.002094388,0.002312094,0.08231571
0.0025116205,0.0042366683,0.0041188,0.0008766353,0.00018304586,0.9955442,0.10433939,0.000415951,0.0090186,0.008555293
0.36853,0.0009999573,0.003489852,0.00060743093,1.9699335e-05,0.016419768,0.027772725,0.00037896633,0.71074075,0.045219958
0.28466305,5.6624413e-06,0.0021524131,0.00018066168,1.1622906e-06,0.0031593144,0.007684648,0.60392,9.983778e-05,0.053449154
0.0009431839,0.85208225,0.03902927,0.002486229,0.0006710291,0.013351202,0.052419603,0.00018587708,0.089975744,0.013599306
1.1026859e-06,0.9999273,0.00025966763,0.0018932521,0.00018066168,0.00085917115,1.296401e-05,2.9802322e-08,0.036734074,0.0004710257
0.9745455,1.4603138e-06,0.000543803,2.5391579e-05,2.0563602e-06,0.003243208,0.0057735145,0.0035485923,4.7683716e-05,0.016850501
0.006818205,0.013352811,0.010288388,0.016765207,0.006466031,0.9089701,0.050768316,0.0004467368,0.28645825,0.01890713
0.97317266,3.552437e-05,0.0028306842,5.1498413e-05,3.695488e-06,0.0115100145,0.006796688,0.00045105815,0.0066073537,0.020192087
4.3064356e-05,0.003157854,0.020071715,0.99683976,0.46136186,0.0076314807,0.011376679,9.536743e-07,0.118956566,0.0005309284
0.009803146,0.0059601963,0.004933864,0.0010653138,4.0769577e-05,0.0059221685,0.047287583,6.0260296e-05,0.9851762,0.016563565
0.84582317,3.2782555e-06,0.0008009672,3.20673e-05,4.4703484e-07,0.0032298863,0.0062161684,0.1804316,0.0002875924,0.013625622
0.157339,0.00025579333,0.001185745,6.8724155e-05,0.000118911266,0.015420765,0.034063578,0.00030833483,0.89158225,0.011085212
0.948455,0.0001258254,0.002860397,0.00046744943,2.002716e-05,0.011197746,0.010806501,0.00035980344,0.0011785924,0.04587856
0.028235048,0.0027663112,0.009834886,0.00048184395,0.000117987394,0.005036652,0.042232305,0.00012397766,0.87812567,0.08256316
0.0009560585,0.0034695864,0.004154533,0.99766636,0.0001206398,0.006456375,0.016565144,8.34465e-07,0.14550063,0.0016498864
0.95830464,0.00011065602,0.0026974976,8.442998e-05,2.3573637e-05,0.02107966,0.027365029,0.0014890432,0.0011399686,0.012959778
0.18800315,0.00036504865,0.0025635064,8.1181526e-05,3.761053e-05,0.0069724023,0.016095191,0.0002065897,0.89532834,0.012556434
1.1771917e-05,0.003447771,0.008537829,0.00016590953,6.407499e-05,0.99999785,0.014820546,0.000613451,0.020951241,0.00020381808
0.71158,0.00041803718,0.013032198,0.0009408891,0.00025171041,0.020408899,0.016874999,0.00039750338,0.2229138,0.0060635805
0.029779881,0.0009634495,0.001075983,9.0390444e-05,2.1964312e-05,0.008359045,0.034510046,6.7949295e-05,0.9491829,0.015755534
0.0032129884,6.7949295e-05,0.0027318,0.9981525,0.0012309849,0.008731127,0.012954116,2.9027462e-05,5.0753355e-05,0.00039088726
0.90656567,5.272031e-05,0.0027458966,0.000567317,3.4064054e-05,0.015864313,0.010688484,0.0064592063,0.0069447756,0.014029592
1.5258789e-05,0.008399487,0.0031514168,0.9961523,0.014849842,0.023941487,0.23241001,6.619096e-05,0.0035066009,0.0023037493
0.00087830424,0.00076043606,0.0040169954,0.9982075,0.03487894,0.010432988,0.026988953,3.516674e-06,0.012676716,0.002190441
0.00204432,0.00016987324,0.00082945824,0.00012654066,2.2649765e-06,0.01936534,0.975363,0.14869693,0.00018212199,0.00384292
0.0021593869,0.0013339221,0.005754173,5.659461e-05,1.758337e-06,0.0030491948,0.022753924,0.00020706654,0.30441716,0.7677524
0.00031393766,0.0016929507,0.0031966865,0.9979089,0.13946211,0.0066747665,0.023157984,5.9604645e-07,0.004778266,0.0027284026
0.3993551,0.0005838871,0.0028264225,0.0006907582,6.696582e-05,0.010790437,0.01648122,0.000587821,0.73667467,0.019437015
1.6987324e-06,0.99894667,0.0011838078,0.11527234,0.0005104244,0.0021053553,0.0016953647,0.0,0.97295284,5.465746e-05
1.2665987e-05,0.00018972158,0.00024667382,0.99999595,0.016141593,0.027737916,0.03858742,0.0,0.0009110868,7.0929527e-06
0.0051570833,0.0014263391,0.0019467473,0.000207901,4.7683716e-07,0.0006406307,0.0028029978,0.00024452806,0.09463209,0.92886686
4.7385693e-06,0.0003927648,0.0092969835,0.9977715,0.00031283498,0.0021561384,0.025160909,8.4251165e-05,0.00017774105,0.0027477443
2.8014183e-05,0.032609493,0.0012023449,0.00015923381,1.8030405e-05,0.027106464,0.99096215,4.3600798e-05,0.42483938,0.0108195245
0.030730426,0.0030219853,0.77520514,0.007237762,0.07059091,0.00818494,0.019770414,0.0011188686,0.06710675,0.046428025
0.95461184,1.9520521e-05,0.0013508201,0.00030195713,3.7252903e-06,0.008994311,0.009343445,0.005802065,0.00066789985,0.044195622
0.90045714,5.018711e-05,0.004769683,4.3570995e-05,5.453825e-06,0.015063673,0.008339554,0.0010413527,0.08013019,0.021179885
2.798438e-05,5.120039e-05,0.0076271594,0.001568228,2.7745962e-05,0.99998105,0.0025275648,0.0028883815,0.00023290515,0.0016141236
0.0,0.0,2.0563602e-06,0.0,0.0,0.999612,0.0,0.0,5.9604645e-08,0.99987674
0.9237157,8.943677e-05,0.003378123,0.00012367964,6.4074993e-06,0.041588157,0.016071111,0.0019138157,0.0010426342,0.022465497
0.0068131685,0.00019440055,0.00070893764,3.20673e-05,1.0192394e-05,0.003729105,0.0186131,0.00013819337,0.9979549,0.00068610907
0.8041996,0.00031781197,0.006250918,0.00043481588,0.00063204765,0.013793677,0.028469563,0.00031918287,0.003788352,0.07115996
0.9252478,1.9669533e-05,0.0022163093,5.608797e-05,3.9339066e-06,0.013406396,0.009171069,0.00078845024,0.102502316,0.01019302
0.00031244755,0.06857413,0.0026188493,9.390712e-05,4.23491e-05,0.029244155,0.98330545,3.1024218e-05,0.08863577,0.013195485
0.21070617,0.00043913722,0.7504358,0.0013735294,0.0066214204,0.014648825,0.01687339,0.011197507,0.007253647,0.008482099
0.90995854,3.182888e-05,0.0043008327,8.547306e-05,6.0796738e-05,0.007482767,0.013041496,0.013583839,9.608269e-05,0.05295044
1.3589859e-05,0.10917878,0.039347827,0.053226054,0.15218452,0.013151318,0.0073775053,1.9878149e-05,0.005565375,0.49177706
0.00034180284,0.9740238,0.006796092,0.0070879757,0.00047811866,0.0051258802,0.019115388,8.910894e-06,0.6893203,0.09798062
0.8861268,0.00017026067,0.004089892,0.0010098219,9.685755e-06,0.010500699,0.015650779,0.002290219,0.0018220842,0.15642399
0.00029972196,0.010789663,0.021910578,0.9896027,0.18291062,0.010288537,0.026116699,3.993511e-06,0.15440264,0.00747028
0.5031406,0.0009165704,0.17171687,0.00052398443,0.0006721914,0.017379493,0.016787916,0.0027261078,0.15366122,0.0046533346
0.22215182,0.000104635954,0.0029172897,0.00014171004,4.7385693e-06,0.010996789,0.024409652,0.0017528534,0.6058534,0.044071198
2.4199486e-05,0.05682379,0.40601262,0.79594785,0.002418965,0.003837049,0.040069163,1.180172e-05,0.9896579,0.00022181869
0.4068809,0.00013053417,0.015928239,0.003353864,6.848574e-05,0.010656655,0.01834479,0.2834729,0.00062698126,0.102969676
0.0006932318,0.0048695207,0.7199316,0.0009984374,0.0024352372,0.0047902763,0.016310453,0.0006557703,0.9797128,0.001002878
0.6922917,0.0003466606,0.013112754,0.0002988279,0.00019589067,0.014610231,0.025550693,0.00031802058,0.013311803,0.08005509
2.0861626e-07,0.018298447,0.004406184,0.99852496,0.00016716123,0.0041969717,0.010258257,8.940697e-07,0.9719044,9.351969e-05
8.225441e-06,2.9206276e-06,0.00043606758,0.9999511,0.00045406818,0.0006082356,0.0022096932,1.2218952e-06,1.2516975e-06,3.9368868e-05
0.0023055375,0.2934086,0.033864677,0.0018164515,0.0012045801,0.0041237473,0.009016633,5.4240227e-06,0.9909671,0.001122117
0.0,0.7472365,0.0067989826,0.9979691,0.50551015,0.07792917,0.09759915,1.1920929e-07,0.032286137,0.00014767051
0.925748,9.351969e-05,0.0020408034,0.0015365183,3.5494566e-05,0.014745027,0.021266669,0.005298406,0.001192987,0.09543699
0.00023448467,0.9455036,0.0369353,0.008647472,0.00080418587,0.014888257,0.0634771,6.774068e-05,0.75407004,0.0749968
0.9635725,4.8607588e-05,0.0034821332,0.0001476407,5.2452087e-05,0.025510252,0.02291429,0.0007227659,0.0017796755,0.011606932
0.0064320564,0.00026023388,0.004703909,4.9829483e-05,5.6952238e-05,0.006276071,0.0129240155,0.00013372302,0.9948612,0.00078982115
0.012486696,0.029867053,0.017972142,0.00727883,0.00023311377,0.009206235,0.031323314,0.00036528707,0.9205737,0.07521227
7.0244074e-05,0.98017776,0.009944707,0.5255202,0.020088762,0.013167024,0.0066414177,2.0861626e-07,0.22386712,0.016240507
0.909602,3.1530857e-05,0.0013462007,4.8339367e-05,1.4811754e-05,0.026197702,0.017953873,0.0045028627,0.024468929,0.013012022
8.34465e-07,0.004592806,0.019654423,0.008830249,0.00016537309,0.99999994,0.0032531917,0.00010499358,0.02286011,0.00069126487
0.88221747,5.155802e-06,0.0008523762,7.3224306e-05,4.9471855e-06,0.0060851574,0.0079808235,0.09141198,0.00012165308,0.030601382
0.00081047416,1.3709068e-06,0.00036263466,1.1444092e-05,0.0,0.00033432245,0.0031351745,0.7256057,0.97790813,0.0011312664
0.00015440583,0.97983867,0.014297128,0.022795886,0.0011909902,0.006577581,0.011390269,8.672476e-06,0.8605727,0.016711563
0.94160575,3.1530857e-05,0.0033446252,0.00022614002,2.8014183e-06,0.006707579,0.006852925,0.0020346642,0.00027057528,0.050127476
0.0009598136,0.32009706,0.016201347,0.01091969,0.00034675002,0.8253025,0.16469237,0.00014480948,0.32102486,0.020742655
0.0020984113,0.018440545,0.004036814,0.0013317764,0.00016102195,0.0028250217,0.014511466,3.1501055e-05,0.99767023,0.0011432171
8.484721e-05,0.98295933,0.019519508,0.101594955,0.0068427324,0.024754614,0.003187716,6.854534e-07,0.7184026,0.0025705993
2.0056963e-05,0.019326359,0.019774646,0.12169519,0.0024926662,0.9866229,0.4501605,0.0029126406,0.00368765,0.006938249
0.0018233657,0.0032583475,0.008363187,0.00029981136,7.1823597e-06,0.0064207017,0.02933693,0.011388093,0.021022916,0.8383592
0.030823052,0.016779602,0.07454157,0.54889727,0.00031858683,0.012617409,0.021523386,0.00014337897,0.45626622,0.014779627
0.0023842156,0.0006928146,0.0016895831,0.0003143549,1.8507242e-05,0.0048603415,0.079312384,0.0006188154,0.99352217,0.0024341047
0.0036523342,0.0004823804,0.0027572215,0.0002284646,1.9788742e-05,0.0047236383,0.02669552,0.00020968914,0.9956337,0.0032396317
1.5199184e-06,0.002193451,0.0001898408,0.9999922,0.0044781566,0.0033656657,0.011495084,0.0,0.0009926558,1.707673e-05
9.846687e-05,0.00067308545,0.01798454,8.788705e-05,4.1157007e-05,0.990679,0.04519391,0.00079119205,0.43622342,0.005495608
0.001442343,0.0045610964,0.96126103,0.034556597,0.0054971576,0.0066862106,0.01245442,0.0012964606,0.20362508,0.0021485686
0.83936775,0.00020104647,0.0046443045,0.00027653575,2.592802e-05,0.013076484,0.01073584,0.0127239525,0.0054145753,0.12519851
3.1858683e-05,0.13959703,0.0022523701,2.6226044e-06,0.0001463294,0.0058717728,0.51343614,0.00017136335,0.0107932985,0.033337593
0.96090543,3.0845404e-05,0.002110213,0.00014910102,1.0102987e-05,0.012488395,0.010296404,0.0008916259,0.011436582,0.020795822
0.00060999393,3.412366e-05,0.0012181997,0.99986005,0.00018635392,0.0070656836,0.011821717,1.1622906e-06,0.0019424558,3.1232834e-05
0.0030227304,0.0006300807,0.017502218,8.133054e-05,1.3887882e-05,0.004179865,0.2632928,6.41644e-05,0.004643947,0.04755348
0.0014725327,3.4719706e-05,0.0002399981,3.516674e-06,3.695488e-06,0.0027855337,0.010465682,4.7683716e-05,0.9990723,4.1484833e-05
0.038915634,0.008046925,0.003323555,0.0015889406,0.0002257824,0.012552172,0.048979253,0.00013071299,0.9330456,0.05988854
9.301305e-05,0.23261312,0.22655761,0.8540386,0.04937446,0.0070631504,0.06242919,5.659461e-05,0.9116359,0.008333176
0.9245145,3.159046e-05,0.0025923252,9.062886e-05,5.00679e-06,0.0066263676,0.007652223,0.0036922097,0.0010457337,0.045487076
0.5877539,7.516146e-05,0.011556387,0.00014731288,2.1457672e-06,0.0046565533,0.009829342,0.0008614361,0.027056783,0.052290052
0.9294979,1.9937754e-05,0.0021377802,4.6789646e-05,3.245473e-05,0.026997656,0.01876527,0.0007401407,0.0029301047,0.018130511
0.011414617,0.010767102,0.010728061,0.0013883114,0.007966429,0.0075641274,0.03678879,5.8352947e-05,0.96606386,0.016528577
0.6131518,0.0002720654,0.004178047,0.00034883618,3.3557415e-05,0.011696368,0.012920618,0.00039947033,0.47924978,0.019375771
0.0044271946,0.0003708005,0.0079444945,0.00076401234,1.680851e-05,0.0048826933,0.029732496,0.8985838,0.00043845177,0.05973637
0.9674958,5.4717064e-05,0.0019467771,0.00019809604,1.13248825e-05,0.017810732,0.020690471,0.0008972287,0.001855135,0.038488746
6.771088e-05,0.1388748,0.33689845,0.40600634,0.005588174,0.9505547,0.026783526,0.0009863079,0.3494016,0.005467832
0.3898333,0.0002950132,0.004012108,0.0014204681,9.083748e-05,0.01519084,0.018814594,0.0007894933,0.6543499,0.02640915
0.28975463,0.00088590384,0.0065573156,0.0012874901,0.00013640523,0.010753542,0.032866478,0.0017650723,0.035190165,0.26042888
0.015512407,0.0036017895,0.026857346,0.0012540221,0.004262924,0.015672296,0.040494084,0.00022768974,0.86039925,0.03137353
0.0029326975,0.0047296286,0.0023360252,0.00068458915,0.00017955899,0.004595965,0.036771327,7.414818e-05,0.997406,0.0017377734
0.008203387,0.0002876222,0.0013552904,0.0045259297,0.0018462539,0.008829415,0.6426094,0.00031217933,0.0006519258,0.26213643
0.16176867,0.0008004606,0.0014946759,0.00030237436,1.4215708e-05,0.008133352,0.031265885,0.0005964041,0.9432815,0.024562359
0.9182533,0.00020039082,0.0017422438,0.00038808584,6.738305e-05,0.0110808015,0.02092728,0.0005221367,0.0027103126,0.062167406
0.9059212,2.6762486e-05,0.002498716,0.0002836585,1.2457371e-05,0.0072698593,0.013020307,0.008537054,0.00036901236,0.08122966
0.005863726,9.268522e-06,0.0016679466,0.00010898709,2.220273e-05,0.005314946,0.033151567,0.98783326,7.9512596e-05,0.0066925287
0.0011203587,0.013218343,0.0017206371,0.004660368,0.00049358606,0.97553015,0.16910794,0.00042125583,0.00026017427,0.0019479394
0.007872373,0.0011834502,0.00404343,0.00015607476,1.3321638e-05,0.007428974,0.04198724,0.00042754412,0.9715382,0.0058383346
0.009834498,0.007870913,0.016205609,0.00038322806,0.00062933564,0.0052259564,0.029186785,8.201599e-05,0.9885607,0.0046442747
0.00023779273,0.097545564,0.5964633,0.0034129322,0.0041437447,0.010924995,0.081537575,0.00017675757,0.97975004,0.005306989
3.257394e-05,0.11752114,0.0018096268,0.9963032,0.0013400018,0.012889117,0.111062765,3.5762787e-07,0.40776545,0.0040629506
0.00044703484,0.000101715326,0.006102413,0.00086951256,1.7553568e-05,0.0005374551,0.002532512,6.0766935e-05,8.1926584e-05,0.98846805
0.1463176,0.001090169,0.01103735,0.0003889203,8.6426735e-05,0.0058262646,0.02562362,0.000105291605,0.50772727,0.14773658
0.017486036,0.0011462271,0.005060643,0.00061765313,1.2308359e-05,0.01615408,0.12040421,0.004957497,0.050532967,0.33300418
0.7680258,5.2064657e-05,0.0037111044,0.00036919117,2.3812056e-05,0.005566627,0.015079498,0.0043510497,0.00018256903,0.25792953
0.9579408,2.002716e-05,0.004443109,0.0001449585,2.7686357e-05,0.011264861,0.01196748,0.012791663,0.0023993254,0.01725936
6.020069e-06,0.99755496,0.001627028,0.00087565184,0.0025053024,0.0012264848,0.0018942952,1.3321638e-05,0.64747363,0.00398764
0.0027215779,0.003922522,0.0049105883,0.0002591312,8.404255e-06,0.0047470927,0.042957276,0.0001860857,0.17340156,0.81818485
6.189942e-05,0.00849092,0.9644219,0.0039863884,0.11652222,0.0056501627,0.020755172,0.00012874603,0.9019104,0.00093635917
0.7316948,0.0011804104,0.2419503,0.0022363663,0.00030636787,0.018819839,0.009040564,0.006122738,0.012274057,0.01845625
4.7445297e-05,0.22595221,0.15588811,0.90841436,0.0013624728,0.00423041,0.068775415,1.6093254e-05,0.30416387,0.034223497
7.390976e-06,0.98779035,0.013442516,0.0017123222,0.00057706237,0.008844018,0.0011963248,1.1891127e-05,0.08865249,0.04641667
0.01175186,0.0024442673,0.0017522275,0.00015166402,1.5348196e-05,0.005848348,0.061992675,8.481741e-05,0.98617184,0.008540571
1.1265278e-05,0.00413543,0.98814476,0.019572258,0.0005875826,0.004252225,0.005624473,4.5269728e-05,0.5951034,6.633997e-05
0.73608065,6.598234e-05,0.0013493001,0.00031253695,1.9073486e-06,0.008514494,0.007905871,0.0055354238,0.4485305,0.04447645
0.17595822,0.00010287762,0.0017244518,0.0003260374,4.3213367e-06,0.004915893,0.002814889,0.19877383,0.00093728304,0.07335773
0.70903665,8.940697e-08,0.0005198419,1.9133091e-05,5.9604645e-08,0.00021892786,0.0014427006,0.12812006,5.662441e-07,0.032717466
8.6426735e-07,0.00043806434,0.003158003,7.0780516e-05,3.501773e-05,0.99998194,0.010505766,5.3852797e-05,0.96511614,8.863211e-05
0.30268025,4.014373e-05,0.0032369792,0.00039213896,9.62615e-06,0.005917847,0.009889662,0.0011394322,0.7845663,0.007524103
0.014363617,0.00049194694,0.0037893355,0.00031793118,7.033348e-06,0.0066877306,0.049042553,0.004562199,0.9432403,0.03757906
0.3423936,0.0003849566,0.0031384528,0.00017392635,3.8594007e-05,0.010934681,0.022694618,0.00017496943,0.74926364,0.032432288
0.0,0.0006726384,0.014749557,0.00016394258,0.00031110644,0.99999845,0.0051793754,8.672476e-06,0.880278,0.00016352534
9.188056e-05,0.39846784,0.009225696,0.015591353,0.0016064048,0.0782364,0.3237127,2.065301e-05,0.021189302,0.12226346
0.53184783,0.00053703785,0.0021490753,0.005728543,1.3589859e-05,0.009947151,0.009912163,0.02506575,0.0019099414,0.2390306
0.0005941093,0.00013563037,0.011551112,0.0016141534,1.6003847e-05,0.0076199174,0.05942744,0.9032514,0.00042366982,0.057676703
1.0788441e-05,0.00027126074,0.0076782107,0.00082832575,0.9960442,0.0033423603,0.04823032,2.5629997e-05,0.13498273,0.019800425
2.1755695e-06,0.16142416,0.0050262213,0.0054189563,0.0028474927,0.96448827,0.48402628,0.00031083822,0.013401121,0.10508001
0.9556302,5.5462122e-05,0.0055217445,8.305907e-05,4.1872263e-05,0.02349016,0.009280026,0.0002962947,0.006916493,0.0060676336
0.0016841888,0.00015577674,0.0039281547,0.9993007,0.0006401837,0.00764063,0.012070149,2.2947788e-06,0.012067825,0.000107795
0.001847297,0.044084728,0.4097731,0.063678116,0.050489813,0.01571846,0.062986106,0.0022300482,0.85985494,0.0213252
0.013943404,0.015219599,0.77452964,0.011553735,0.1513195,0.011920303,0.025973946,0.0022998154,0.3969954,0.005281478
0.008797348,0.012629896,0.0014015436,0.00043076277,1.3440847e-05,0.030328065,0.9665537,0.0006596744,0.014380187,0.03698963
0.35172743,0.00035887957,0.00637874,0.00023928285,8.225441e-06,0.016413987,0.07550752,0.0010426342,0.21402267,0.041118264
2.6106834e-05,0.07019678,0.015995473,0.007299125,0.00028803945,0.4843802,0.4734047,0.00015956163,0.0460186,0.109092325
0.0032947361,0.006640345,0.0030371547,0.0013296604,0.00029841065,0.7790996,0.8716439,0.0007824898,0.015741289,0.018623471
0.77961266,0.0002565384,0.0013890862,0.004921019,0.00023931265,0.022959262,0.049582988,0.0011415482,0.0035832822,0.10893655
0.0037132204,0.012727588,0.0042169094,0.003630042,0.0006800294,0.012031585,0.028354496,4.3720007e-05,0.1360966,0.7243906
0.005004436,0.003272593,0.007825166,0.0026782155,0.00015026331,0.9778516,0.034245044,9.408593e-05,0.13806492,0.057953954
0.9732934,1.0073185e-05,0.0035550594,2.5480986e-05,4.7385693e-06,0.008517474,0.005688101,0.0027535856,0.0011681914,0.0064858496
5.9604645e-07,0.00029051304,0.97490156,0.9984368,0.022578478,0.002739936,0.008116305,8.34465e-07,0.43176198,1.4007092e-06
0.78101313,0.00016501546,0.0027030706,0.00016060472,4.6879053e-05,0.01707694,0.017015815,0.00074508786,0.2446464,0.019678205
0.7944028,1.6987324e-05,0.0013722479,8.457899e-05,9.894371e-06,0.007975191,0.01203531,0.18104649,0.00019875169,0.019635588
0.0011484027,8.299947e-05,0.0033444762,0.0012444258,1.013279e-06,0.0014306009,0.00510183,0.15246278,3.4928322e-05,0.64035416
0.044917375,0.00090906024,0.009429932,0.00012123585,0.00016081333,0.005622208,0.028009474,0.00047889352,0.9216466,0.015375316
0.75781906,0.0018908978,0.0029400587,0.0011169016,0.00013023615,0.02269712,0.07364431,0.002593428,0.0015664101,0.08079356
0.026005566,0.0017131269,0.019845665,0.00019589067,0.00087347627,0.005045384,0.004996091,4.7773123e-05,0.0036010444,0.5067881
0.006923467,0.0012848973,0.017629564,0.06431544,0.9351144,0.0046690702,0.029926628,4.4375658e-05,0.03494525,0.055470467
0.88048464,6.303191e-05,0.0033370852,8.517504e-05,1.8656254e-05,0.004834801,0.0032452047,0.0014960468,0.00029695034,0.042789012
0.0011332631,0.78415006,0.053189516,0.006356269,0.0019551218,0.011548996,0.091581464,4.74751e-05,0.6467364,0.08740601
0.91002274,0.00027108192,0.0030144155,0.0004784763,5.751848e-06,0.013887048,0.0072445273,0.00014603138,0.08586681,0.008545846
0.022102743,0.0035187602,0.0026630163,0.00030636787,3.71933e-05,0.0040972233,0.039329857,4.5120716e-05,0.9534397,0.12578565
3.7252903e-06,0.53264874,0.0013018847,0.9959028,0.008061707,0.011588335,0.03655997,0.0,0.34502584,0.0012836456
0.95784545,8.198619e-05,0.0014170408,0.00010880828,1.2755394e-05,0.021089494,0.033109814,0.0032724738,0.0012770295,0.018485963
0.60413194,1.424551e-05,0.0016910732,2.8848648e-05,6.3180923e-06,0.0019106269,0.0021324754,0.0052134097,1.9162893e-05,0.065629005
0.96165,3.427267e-06,0.00094249845,3.8653612e-05,6.854534e-07,0.007825881,0.0045252442,0.007573098,0.002853781,0.0052090883
0.88469255,0.0002874434,0.0044695437,0.00019365549,1.463294e-05,0.010990053,0.017548114,0.00039169192,0.029111832,0.06819308
0.15334857,0.000269562,0.002800554,0.0010007918,3.8444996e-05,0.0088246465,0.014910668,0.0031738281,0.428908,0.35881948
0.5561804,0.000859499,0.0059144795,0.001902312,4.7385693e-06,0.014104933,0.022940218,0.003027141,0.004996419,0.23229632
0.9476956,2.6613474e-05,0.0038265586,4.851818e-05,4.529953e-06,0.006148249,0.0066639185,0.0032640696,0.0029472709,0.06015688
0.0067453384,0.0015016794,0.0013249516,0.002047807,3.248453e-05,0.00088885427,0.03833589,1.31726265e-05,0.12801129,0.8580426
0.006744772,0.0015019774,0.0013256669,0.0020479262,3.245473e-05,0.0008889735,0.03833589,1.3142824e-05,0.12800139,0.85803545
0.0,0.99942815,0.0021882355,0.008327484,0.0027557611,0.0008916855,0.0015847087,1.1920929e-07,0.003545642,0.0024346113
1.0430813e-05,0.9955538,0.03156343,0.0027652383,0.0041992366,0.0057787,0.0040584803,1.4513731e-05,0.044507295,0.013133317
9.146333e-05,0.0028518736,0.016786039,0.005089313,0.99159217,0.009724975,0.054143935,2.2411346e-05,0.35790777,0.002330929
0.9620929,2.0176172e-05,0.0023694932,0.00013017654,3.3080578e-06,0.0076525807,0.0050508976,0.010294288,0.00086671114,0.018234879
0.003796041,0.00089997053,0.00060772896,2.7924776e-05,1.3500452e-05,0.006269634,0.30555528,5.0485134e-05,0.9728877,0.0062510967
0.95504034,2.0563602e-05,0.0025607347,0.00025066733,1.7285347e-06,0.0071035028,0.008433342,0.0018646121,0.0014936924,0.03133729
0.0005069375,0.00027945638,0.00039568543,0.99883676,0.0025613904,0.0056191683,0.01894164,4.172325e-07,0.00031119585,0.0021556914
3.734231e-05,0.014350772,0.8766148,0.011887938,0.72585934,0.0041716695,0.017372042,6.5505505e-05,0.964127,0.001093477
1.3589859e-05,0.0009083748,0.023095608,0.0032808483,0.0008967519,0.0010151863,0.0009653568,0.0001527965,0.0017140508,0.9471688
0.006744772,0.0015019774,0.0013256669,0.0020479262,3.245473e-05,0.0008889735,0.03833589,1.3142824e-05,0.12800139,0.85803545
0.00046029687,3.3676624e-06,0.0006032288,0.99977076,2.798438e-05,0.0018236637,0.00603652,8.34465e-07,1.8000603e-05,8.404255e-05
0.953772,4.503131e-05,0.0017592311,0.00027540326,1.3202429e-05,0.011217564,0.0107188225,0.008419633,0.0012847781,0.032874197
0.15089104,0.00054851174,0.006190777,0.0003991723,2.82228e-05,0.01000154,0.021451175,0.00038859248,0.9124133,0.01459828
0.9639983,3.993511e-06,0.004208386,1.1116266e-05,1.1026859e-06,0.003353089,0.004031807,0.0010749698,7.9870224e-05,0.0069932044
0.9763461,9.387732e-06,0.0008351803,2.2828579e-05,2.4616718e-05,0.012285799,0.014034003,0.0010225177,0.0011666119,0.0094175935
0.00014436245,0.0033119023,0.0005760491,0.00013718009,7.897615e-06,0.08948153,0.9985943,0.0001899898,0.01266548,0.00037673116
0.051488996,0.0058286786,0.0043880045,0.097308695,0.00085482,0.009337395,0.038837314,2.4735928e-05,0.16074434,0.30982164
0.015668452,0.0064642727,0.006077796,8.228421e-05,0.00012174249,0.02264005,0.24326104,0.00016695261,0.9430232,0.0020660758
0.8532515,1.2665987e-05,0.0013255477,0.00033435225,2.1010637e-05,0.012063503,0.015203327,0.090917975,0.0003271401,0.024602324
2.9802322e-08,0.28290984,0.006015867,0.99986124,0.029301494,0.0040405393,0.0048235357,0.0,0.20467412,1.1056662e-05
1.4901161e-07,0.14219713,0.0028840303,0.9988712,0.0031643808,0.0030773282,0.017852217,0.0,0.8781526,5.3614378e-05
4.053116e-06,0.0051150024,0.9021075,0.9932108,0.0048854053,0.0030753016,0.00485456,2.3543835e-06,0.010382146,0.00030201674
0.69614923,0.00046238303,0.027361035,0.00076693296,3.144145e-05,0.014090329,0.02567941,0.0075138807,0.050061494,0.06643
0.05093944,0.00019443035,0.0005014539,7.480383e-05,1.1563301e-05,0.0058550537,0.01767683,0.0001810193,0.9801598,0.0056061745
0.04444149,0.015212774,0.0025164485,0.0015725791,2.8461218e-05,0.012491018,0.073265076,7.003546e-05,0.86902404,0.07306343
0.019904524,0.008665413,0.0060893297,0.0021645129,4.056096e-05,0.010322779,0.04868427,0.00037017465,0.9795605,0.0148281455
0.9481,0.00010308623,0.002317071,0.00022625923,4.172325e-05,0.013504565,0.024851978,0.0019720793,0.0011866391,0.04748276
2.9802322e-07,0.075496644,0.0014713705,0.9986563,0.0002682507,0.0022219718,0.023019046,0.0,0.89533246,7.849932e-05
4.7683716e-07,0.17886844,0.6279507,0.0009726882,0.0076283813,0.010340273,0.8969734,7.3611736e-06,0.9697192,0.00012105703
0.25984275,0.00046733022,0.0010795593,0.0024169385,1.4215708e-05,0.019503266,0.026466042,0.0011328757,0.6698584,0.015273392
0.9583219,6.3478947e-06,0.0006927252,2.527237e-05,1.5884638e-05,0.011014998,0.0065018833,0.0011137426,0.00018459558,0.0027318
0.00022885203,0.004213631,0.004069656,0.99825954,0.0013595521,0.006908685,0.027475625,2.9802322e-07,0.099684566,0.0025916994
4.2021275e-06,0.00079759955,0.0151287615,0.99962187,0.21560684,0.0024031699,0.021220237,2.9802322e-08,0.007903665,0.00039032102
5.930662e-06,0.99867266,0.0006814003,0.00044447184,0.00012722611,0.0018474758,0.004489243,3.0845404e-05,0.0050132275,0.014824182
0.00022172928,0.00016525388,0.05175376,3.9041042e-06,4.014373e-05,0.0010095537,0.0016563237,2.6136637e-05,0.99807835,2.592802e-06
0.0011523962,0.3083823,0.0062692463,0.0076262057,0.00020343065,0.017855763,0.5470476,0.000120699406,0.13333511,0.16463283
0.0032660067,0.3587314,0.019727945,0.00086677074,6.118417e-05,0.034198225,0.16367501,5.6564808e-05,0.033301413,0.07414305
0.9636687,1.1265278e-05,0.0017674565,3.6865473e-05,3.5762787e-06,0.010149509,0.00970009,0.0013599992,0.017192662,0.011441618
0.006744772,0.0015019774,0.0013256669,0.0020479262,3.245473e-05,0.0008889735,0.03833589,1.3142824e-05,0.12800139,0.85803545
0.059176713,0.0013218522,0.005452782,0.00032812357,7.7188015e-06,0.025021046,0.010236114,0.0014796257,0.21241918,0.39395887
0.0006554723,0.010669678,0.0043358207,0.0015544593,4.3213367e-06,0.0012423694,0.011172026,0.000120431185,0.98689353,0.0031017065
0.00029355288,0.0002976954,0.0054628253,0.0028368235,0.018713415,0.0017378628,0.013658851,0.00028982759,0.0070229173,0.8905812
0.9259453,4.1395426e-05,0.0016220808,2.8640032e-05,6.3478947e-06,0.022604465,0.022182941,0.0021426082,0.0013777018,0.010046899
0.9424876,1.1742115e-05,0.0022663176,6.940961e-05,5.6922436e-06,0.0047901273,0.007505715,0.005574435,0.0001322329,0.035578042
0.040133208,0.0010779798,0.0016295612,0.0005162358,5.6296587e-05,0.0066382587,0.02698949,0.00024333596,0.97990036,0.011899173
0.00025746226,0.9515514,0.025966376,0.004633665,0.0037364364,0.0030696094,0.0011960864,8.717179e-05,0.042375147,0.050137132
0.007825345,0.03817168,0.016103894,0.0054508448,0.0012224615,0.0081734955,0.032874525,0.0006056428,0.9850597,0.011281401
2.3841858e-07,0.21988252,0.014141291,0.05851671,0.023645699,0.9977132,0.07033104,2.2679567e-05,0.6903311,0.0006902516
0.0008287132,0.010095805,0.009594321,0.0013642907,1.3589859e-05,0.052603513,0.08982089,0.00015088916,0.35940814,0.32486367
0.1387986,0.0011335611,0.0020819604,0.00024816394,2.1129847e-05,0.015118569,0.039309204,0.00045621395,0.9011507,0.028416514
0.6941611,0.00022560358,0.015251309,0.00018468499,4.708767e-05,0.0067572594,0.0071863234,0.0010915399,0.0028389692,0.0820815
0.045434147,0.000205338,0.93664116,0.0009139776,0.0031975508,0.0060830414,0.009092212,0.01184237,0.0023538768,0.008663774
0.92111385,0.0006124377,0.0011300147,0.00030475855,2.4676323e-05,0.029001027,0.045648187,0.0003887117,0.0047720075,0.012412131
0.75452876,0.00015944242,0.0015988946,0.0010338128,2.0563602e-06,0.019372195,0.013458431,0.01267305,0.24108425,0.021200746
3.668666e-05,0.9363692,0.025480837,0.020720065,0.0072876513,0.013637155,0.025308043,3.0100346e-06,0.52586865,0.016818851
0.00042426586,1.2636185e-05,9.6052885e-05,0.9998515,0.00030487776,0.005757302,0.010287583,1.937151e-06,1.7017126e-05,0.00018706918
1.8537045e-05,0.41039696,0.03462562,0.6545245,0.2803698,0.0055506825,0.050319403,6.0498714e-06,0.9773398,0.001989752
0.9843862,2.1755695e-06,0.0008531213,1.2695789e-05,8.225441e-06,0.0063952506,0.0069867074,0.0015884638,7.6025724e-05,0.009729981
0.058565706,0.0036270618,0.0084185,0.00056549907,8.240342e-05,0.80358404,0.09937796,0.0008740425,0.016107261,0.054979354
0.94029975,4.580617e-05,0.002471,0.00024151802,6.467104e-06,0.008974731,0.021238148,0.012961239,0.0015043318,0.05287823
8.717179e-05,0.037132144,0.011034936,0.0024715364,0.00021004677,0.9400965,0.07704967,2.2053719e-05,0.9848933,0.00059339404
0.0010065436,0.0027594864,0.0017983019,0.9979751,0.0034109652,0.017292619,0.041140705,1.630187e-05,0.0017639399,0.005510509
5.841255e-06,0.75708675,0.065687,0.9910898,0.015229791,0.010859281,0.05851698,2.7418137e-06,0.8867455,0.00019216537
0.00022426248,0.005461961,0.014431924,0.001295358,9.831786e-05,0.9999632,0.11227587,0.0005698204,0.034264266,0.004082054
0.040726334,1.731515e-05,0.0030993223,0.00020903349,8.1151724e-05,0.004702002,0.003230393,4.6998262e-05,0.9748876,0.00017553568
0.44754818,8.583069e-06,0.00091817975,1.4990568e-05,5.2154064e-06,0.007350445,0.0046980083,0.0006504357,0.79144067,0.0019581318
0.123361886,0.00043779612,0.008036852,0.0013148189,0.006122917,0.014205426,0.048032254,0.0016551614,0.3257317,0.055158883
0.0025586486,0.002441436,0.58579105,0.00076153874,0.0006648302,0.0044794977,0.010162979,0.0005108714,0.97488976,0.0018078089
0.588801,0.0017883778,0.0043194294,0.00030195713,1.3440847e-05,0.046491146,0.007765323,0.0008613765,0.049524873,0.031945884
0.94026744,8.869171e-05,0.009106517,0.0003516078,5.9455633e-05,0.010530978,0.013879806,0.0015504062,0.0010331869,0.018681854
0.059104234,0.007148564,0.0041573048,0.0011395514,5.0485134e-05,0.03006208,0.20313054,0.0037882924,0.0078885555,0.26923025
0.93048173,7.793307e-05,0.0033974946,0.00033527613,6.2584877e-06,0.009434283,0.014014542,0.002112478,0.000615716,0.13955823
0.0012204647,0.002892673,0.27943105,0.0002912581,0.010228604,0.006786853,0.039195716,0.0003670156,0.99319035,0.0013822019
4.976988e-05,0.97234356,0.027910411,0.027323902,0.0027230978,0.018602401,0.1096783,6.2584877e-06,0.66325647,0.013144791
0.0,0.002347827,0.87535286,0.9945345,0.9619955,0.0014633536,0.023087949,4.172325e-07,0.01978299,8.285046e-06
3.874302e-07,0.99889135,0.003847003,3.1083822e-05,0.0007659197,0.0020495951,0.0046003163,1.1920929e-06,0.011345059,0.006433457
0.91625345,9.536743e-06,0.003011614,3.8266182e-05,3.2782555e-06,0.005971074,0.004355073,0.0013789237,0.01165235,0.025963783
0.012309492,0.09222254,0.0050902665,0.010137647,4.4226646e-05,0.016980499,0.022239834,7.304549e-05,0.93120885,0.2121039
0.15399161,0.00017163157,0.002609074,1.7017126e-05,9.179115e-06,0.005348891,0.013414234,9.083748e-05,0.8599566,0.018402636
0.000290066,0.011528343,0.0010630488,2.670288e-05,2.425909e-05,0.037422627,0.99695337,5.2899122e-05,0.0016991794,0.017181009
0.2828981,0.0006764531,0.0034382045,0.0003658235,3.9815903e-05,0.010960847,0.023966372,0.0016321242,0.82069933,0.037210822
0.00048023462,0.0035057366,0.04510057,0.0002220571,8.687377e-05,0.0146484375,0.058104664,0.00169456,0.51811224,0.17663848
0.9517553,2.2262335e-05,0.003368795,0.00021028519,6.854534e-07,0.0043411255,0.0076471567,0.006895393,0.00054365396,0.062862635
0.07517195,0.0003989935,0.0029962957,0.0002527237,1.9669533e-06,0.0005746782,0.002592653,8.627772e-05,0.031661958,0.92651474
0.005101353,0.0011424124,0.8845993,0.00089660287,0.29564148,0.0073652565,0.011055768,0.00074374676,0.010634333,0.010617375
8.940697e-08,0.0077973604,0.00016474724,0.99992764,0.0001192987,0.004926324,0.95987,2.682209e-07,0.00028711557,1.9699335e-05
0.59811145,0.00095030665,0.005345583,0.0006143153,4.0858984e-05,0.014422357,0.0497545,0.0019388497,7.8976154e-05,0.031356186
0.5823647,6.785989e-05,0.0039505363,0.00061810017,2.592802e-06,0.0052041113,0.0073055327,0.05000496,0.0010601878,0.16735747
8.314848e-06,0.07007396,0.007581353,0.08929926,0.002591014,0.999992,0.021059632,2.1338463e-05,0.0404433,0.00080674887
0.00055259466,0.00208053,0.009475589,0.00053054094,0.0021546185,0.01570177,0.05171451,0.00041732192,0.0025428832,0.6773662
